IR Value,Red Value
6692,28960
6299,28512
6288,28522
6218,28431
6106,28326
6048,28293
5753,27956
5587,27793
5136,27317
4934,27091
4707,26831
4575,26711
4274,26506
3963,26052
4035,26171
4289,26481
4027,26202
4078,26280
4306,26559
4027,26271
3170,25373
2587,24753
1315,23313
65081,21364
63966,20000
63336,19317
62559,18477
61044,16825
59630,15212
58482,13951
57458,12778
56891,11969
56188,11143
55524,10378
54805,9669
54334,9097
53755,8403
53156,7576
52555,6817
51998,6120
51597,5743
51597,5743
51246,5344
51118,5198
51283,5401
51456,5623
51627,5842
51601,5833
51562,5782
51541,5768
51485,5717
51542,5796
51611,5874
51599,5869
51589,5858
51652,5934
51608,5916
51546,5834
51424,5695
51395,5646
51343,5575
51123,5306
50997,5167
51051,5233
51297,5528
51347,5595
51342,5566
51517,5798
51612,5899
51736,6039
51927,6269
52051,6425
52082,6484
52055,6462
52122,6548
52130,6569
52118,6557
52194,6677
52094,6565
52098,6592
51984,6435
51735,6155
51563,5953
51344,5674
51021,5324
50648,4910
50304,4488
49848,3978
49329,3377
48799,2702
48185,1976
47833,1719
47541,1448
47067,1009
46350,220
46350,220
45585,64948
44961,64197
44453,63567
43950,63174
43580,62800
42696,61831
42054,61127
41139,60002
40559,59307
39846,58630
39846,58630
39299,57990
38692,57358
38240,56884
37859,56494
37455,56097
36872,55467
36611,55186
36282,54930
36131,54832
35976,54680
35833,54487
35572,54176
35459,54065
35294,53860
35368,53971
35426,54088
35708,54476
35873,54695
35945,54761
36001,54798
36023,54825
35985,54780
35899,54654
35754,54464
35667,54318
35607,54231
35662,54298
35907,54611
36188,54956
36397,55212
36596,55487
36862,55833
37067,56088
37303,56373
37951,57207
39595,59334
41210,61298
42388,62843
43406,64017
44091,64792
44775,54
46823,2480
48554,4406
50922,7267
53000,9841
53460,10443
53729,10580
54531,11458
55415,12445
56587,13735
56587,13735
59186,16640
61723,19394
62891,20634
64231,22084
63779,21567
59145,16270
54906,11068
52924,8405
52770,8144
53044,8397
53515,8877
53467,8815
53937,9377
54705,10207
55621,11241
56420,12087
56752,12345
58286,14078
58387,14143
58880,14559
60034,15829
61091,16984
61454,17367
62377,18316
63397,19416
64125,20256
65016,21191
1554,23494
2688,24689
2928,24826
3593,25558
3960,25983
4386,26318
5327,27091
5424,27048
5529,27088
6321,28008
7051,28814
7103,28825
7396,29100
7942,29631
7590,29151
6946,28357
6445,27744
6281,27523
6094,27278
5943,27090
5626,26714
5323,26340
4984,25989
4913,25915
4908,25876
4572,25498
4198,25065
4013,24848
4104,25005
4324,25241
4690,25647
5706,26838
5750,26869
5261,26289
5203,26212
5203,26212
5431,26433
5660,26669
5641,26662
5452,26435
5555,26513
5496,26433
5118,25987
4390,25123
3975,24654
3505,24105
3111,23643
2709,23183
2222,22644
1938,22381
2057,22511
2257,22751
2288,22786
2494,23008
2593,23109
2788,23311
2796,23341
2929,23493
3372,24001
3924,24650
3916,24642
3679,24394
3249,23914
3045,23720
2833,23488
3083,23835
2426,23102
1647,22255
889,21442
93,20555
65499,20331
64657,19433
64073,18773
64016,18717
63694,18362
62975,17618
62224,16745
62178,16673
62328,16862
62224,16743
62214,16771
62282,16835
62549,17128
62123,16632
61963,16427
62162,16626
62253,16728
61738,16105
61595,15828
61860,16113
61860,16113
61733,15921
62318,16607
62481,16785
62250,16526
62129,16369
62279,16519
62725,17042
62603,16882
62368,16580
62420,16632
62515,16751
62678,16979
62566,16797
62697,16950
62797,17050
62726,16939
62598,16796
62385,16500
62150,16158
61677,15599
60942,14680
61058,14824
60400,14073
58842,12306
58764,12227
58054,11473
57913,11306
58087,11485
57795,11145
56800,9922
56066,9014
56487,9511
56303,9316
55933,8897
55538,8443
55195,8038
54530,7264
54845,7702
55092,8154
54466,7439
53878,6764
53748,6757
54136,7614
54424,8645
54498,9199
54262,9298
54616,10160
54926,10729
55536,11563
55917,12102
56164,12444
56340,12768
56338,12785
56602,13134
56942,13570
57103,13787
57235,13939
57570,14376
57673,14466
57639,14440
57535,14305
57535,14305
57994,14862
58665,15804
59391,16754
60575,18388
60805,18712
60963,18979
60503,18388
59135,16657
58783,16194
59133,16626
59549,17208
59330,16915
59101,16630
59053,16577
58999,16462
59226,16805
58240,15501
58912,16377
59388,17018
58350,15674
57158,14125
56433,12993
55674,11207
55553,10014
56547,10692
57163,10880
57902,11155
57887,10474
58103,10212
57750,9337
57148,8305
56021,6183
55117,4799
55021,4577
54566,4089
54387,3913
54180,3649
54165,3664
54114,3618
54129,3744
54402,4066
54931,4711
55430,5235
56261,6180
56807,6805
57081,7147
57005,7069
56628,6626
56159,6143
55271,5249
55271,5249
54943,4979
56011,6148
57849,8268
58536,9153
58356,9007
58154,8815
58395,9057
58170,8849
57643,8271
57841,8576
58511,9337
58522,9361
58787,9636
58797,9674
59421,10382
59852,10774
59779,10717
59337,10234
59323,10246
59721,10713
59734,10721
59496,10463
60036,11087
59943,10971
59851,10928
60246,11312
60124,11193
60447,11538
60021,11104
59199,10222
59281,10299
59725,10810
59417,10474
59306,10337
59807,10787
60239,11375
57582,8585
54942,5857
54901,5765
55260,6104
56788,7953
56626,7981
57072,8532
57492,9044
57845,9554
57686,9356
58678,10282
57517,8980
52265,3279
43604,58472
45180,60564
43343,58563
40026,54562
37249,51314
34234,47549
32908,45853
32484,45131
32510,45194
32311,44935
32514,45215
34040,47296
37126,51232
40924,55809
40924,55809
43973,59398
46224,62090
48723,64970
52861,4643
58096,11511
61719,16163
61317,16267
47902,2457
46690,2031
47764,3698
47025,2982
46663,2589
45889,1677
45100,731
45008,517
43871,64677
42643,63213
41997,62415
41675,62029
41572,61906
41512,61841
41426,61729
41326,61611
42013,62450
41989,62433
41313,61587
41014,61208
40767,60803
40560,60546
40460,60400
40054,59930
38264,57768
36720,55836
35274,53925
34029,52368
33522,51580
32883,50658
33963,51924
34853,52915
35496,53687
35204,53372
35361,53580
35782,54033
38347,56869
43424,62554
48506,2612
52070,6572
52070,6572
54099,8852
55901,10810
57296,12383
55677,10289
51348,5202
45741,64542
44033,62669
42959,61463
41665,60042
40374,58749
37278,55244
35723,53653
35723,53653
33762,51182
34647,52082
40148,58179
43962,62678
40877,59026
37646,55166
42656,60749
40560,58570
36973,54496
39521,57377
45656,64622
52931,7696
61741,17670
64660,20870
64601,20981
60783,15826
57956,11571
54341,6976
53663,5913
57855,10424
57158,9757
57533,10223
59129,12349
60259,13638
60560,14065
58888,12341
54706,7933
46945,64577
46681,64137
46709,64176
47734,65348
47992,132
47537,65087
47732,65217
48027,65507
47523,64965
47033,64364
46684,63927
46064,63276
45679,62855
43764,60497
43618,60296
45004,61945
47733,65087
50237,2465
52201,4597
56448,9175
60484,13553
60484,13553
60225,13245
59729,12527
62189,15208
61160,14052
59477,12095
59217,11816
58703,11245
59183,11645
56124,8183
60718,13002
63206,15921
63615,16542
1019,20208
2819,22534
4069,24540
2162,22889
1163,21238
1929,21778
1314,21149
65333,19533
925,20632
3033,22699
3631,23019
4227,23775
5721,26128
6491,27928
6425,28764
414,22691
58799,13992
56166,11009
53211,7679
51939,6142
51773,5893
51739,5608
55887,9727
59867,14096
61792,16232
61017,15485
59075,13227
60109,14129
57950,11787
54707,8187
48551,1094
42383,59591
38402,54999
37352,53960
38099,54971
39354,56482
43009,60676
46051,64286
45071,63155
45653,63786
47077,65411
48182,1170
49119,2202
53656,7157
61875,16105
63110,17087
58732,11913
57394,10058
60888,13928
61854,15522
59372,13106
57278,10761
57278,10761
60497,14231
61559,15088
57245,9983
57211,10192
54954,7845
50655,3123
50633,3048
55044,8049
54576,7526
51141,3597
45885,62940
42558,59234
43955,60834
47876,65182
47988,65236
43152,59829
37778,53842
35521,51123
35548,51239
37842,54014
39034,55454
39117,55701
43587,61243
50514,4306
47108,528
44608,62979
46582,65205
48495,1941
50813,4421
53981,7977
56204,10421
56062,10096
54032,7741
50329,3642
47575,491
43814,61698
40876,58311
39293,56322
38821,55753
39020,56008
38979,55990
38332,55209
37549,54369
37142,53916
36778,53433
35441,51873
33418,49511
32246,47941
31690,47251
31204,46750
30808,46299
30808,46299
30625,46087
30858,46432
31230,46926
31441,47191
31211,46906
30860,46458
30828,46412
30835,46419
30752,46318
29679,45020
28598,43703
28191,43081
28188,43088
28213,43162
28554,43631
29028,44247
29047,44284
28651,43755
28542,43594
28401,43403
28705,43762
29350,44547
29523,44715
29978,45249
31146,46666
32792,48667
33793,49994
34743,51101
35645,52090
37086,53797
37606,54507
38297,55285
40555,57734
44693,62506
47941,625
49355,2257
50906,4009
51263,4409
51349,4567
51906,5224
52896,6381
54174,7808
56893,10812
58232,12343
56903,10861
55157,8870
54953,8538
55237,8803
54326,7754
54499,7902
56675,10310
55225,8735
51884,4956
51040,3968
50759,3670
51129,4156
50634,3704
47998,880
47998,880
46610,64939
45463,63715
47627,713
50906,4354
50906,4354
50851,4466
50314,3845
49634,3174
50207,3790
50573,4213
48894,2362
44905,63272
43162,61164
42626,60489
43197,61129
45213,63402
48194,1118
52243,5459
53999,7349
52024,5237
47211,46
43604,61488
42316,60069
41614,59303
40400,58033
39054,56562
39177,56716
40190,57928
43126,61264
47528,688
51867,5598
52669,6465
51697,5433
50603,4247
51542,5326
56097,10556
59150,13973
58630,13465
58541,13349
59092,13981
58254,13007
56969,11577
55969,10475
56020,10549
56043,10640
54472,8908
51607,5569
47395,901
46399,65283
45162,63885
42511,60802
42511,60802
39856,57716
37371,54796
35147,52100
34020,50800
33421,50060
33274,49866
33919,50598
34874,51732
35510,52486
37526,54824
40065,57671
40898,58645
41579,59430
39968,57550
35728,52244
33718,49641
32632,47918
32172,46272
32200,46014
32565,46535
33654,48072
35509,50692
37423,53376
40378,57000
44790,62220
49399,2012
52661,5868
54410,7978
55854,9668
58536,12740
58502,12907
55453,9715
55204,9480
57816,12445
61255,16674
64312,20559
3591,25964
6559,29147
9317,32060
10915,34031
11759,35213
12031,35561
12157,35691
12339,35897
12792,36660
13074,36856
13672,37240
14427,38015
4096,22528
21469,38912
6242,8234
2766,3766
1923,2597
1561,2083
1644,2187
1596,2118
1617,2152
1683,2248
1647,2196
1628,2161
1576,2089
1576,2089
1518,2019
1517,2020
1473,1959
1473,1919
1432,1891
1385,1841
1395,1845
1346,1792
1367,1767
1334,1761
1301,1732
1336,1748
1286,1710
1311,1689
1278,1695
1263,1679
1309,1704
1263,1681
1271,1671
1269,1702
1256,1673
1301,1697
1259,1681
1253,1672
1264,1721
1255,1675
1295,1704
1256,1690
1247,1668
1254,1708
1247,1667
1275,1706
1250,1683
1243,1664
1269,1699
1246,1665
1265,1702
1252,1680
1249,1665
1280,1692
1253,1671
1273,1702
1279,1703
1301,1731
1359,1793
1392,1850
1535,2025
1843,2376
2301,2832
2301,2832
3017,3413
5129,4530
39806,38858
2121,2621
2579,3152
4982,5695
13253,13778
49455,54058
12288,11918
2966,3550
12008,12139
12081,12292
6830,7195
6848,7355
7467,8204
8231,9135
3865,4609
3650,4311
3721,4380
3602,4253
3259,3852
3365,3940
4056,4649
4601,5225
4669,5280
4533,5152
3906,4523
3159,3740
2770,3325
2572,3112
2480,3014
2234,2747
2017,2513
1912,2397
1875,2356
1934,2425
1974,2463
2016,2509
2146,2643
2309,2820
2493,3019
2565,3090
2504,3015
2263,2761
1906,2375
1704,2156
1527,1963
1417,1828
1391,1812
1380,1804
1381,1800
1326,1749
1361,1769
1376,1801
1384,1816
1417,1846
1389,1832
1388,1816
1378,1818
1378,1818
1353,1783
1356,1777
1350,1781
1355,1785
1367,1812
1365,1802
1380,1812
1367,1800
1364,1793
1380,1825
1398,1839
1424,1867
1412,1860
1400,1843
1407,1861
1381,1824
1377,1820
1369,1812
1374,1817
1409,1859
1420,1878
1450,1921
1469,1943
1479,1956
1513,1986
1499,1975
1497,1974
1469,1934
1429,1889
1418,1869
1389,1839
1401,1849
1393,1838
1384,1830
1398,1844
1389,1836
1400,1843
1395,1840
1393,1837
1401,1849
1395,1839
1415,1859
1400,1850
1379,1820
1385,1832
1371,1813
1368,1799
1332,1770
1332,1770
1312,1741
1322,1751
1311,1736
1328,1752
1328,1757
1332,1763
1345,1781
1313,1744
1337,1769
1337,1769
1399,1844
1460,1919
1414,1868
1377,1827
1351,1793
1343,1784
1390,1835
1451,1891
1512,1957
1493,1935
1516,1959
1623,2073
1710,2158
1798,2223
1812,2235
1815,2252
1896,2343
2130,2592
2438,2902
2353,2831
2072,2543
2116,2576
2140,2622
1611,2061
1390,1833
1370,1806
1404,1837
1386,1835
1382,1818
1373,1818
1351,1784
1345,1767
1313,1744
1304,1729
1309,1752
1303,1731
1336,1761
1399,1839
1442,1874
1430,1861
1398,1826
1410,1852
1403,1854
1402,1852
1417,1874
1393,1846
1402,1859
1390,1835
1375,1813
1375,1813
1378,1807
1346,1776
1355,1791
1349,1774
1355,1783
1399,1840
1359,1806
1370,1818
1363,1803
1350,1791
1364,1808
1343,1791
1356,1800
1345,1787
1340,1778
1358,1800
1344,1787
1362,1800
1350,1790
1342,1778
1352,1790
1346,1780
1370,1800
1367,1808
1371,1806
1389,1831
1381,1822
1396,1829
1388,1830
1384,1823
1405,1846
1397,1836
1408,1845
1407,1850
1404,1844
1419,1859
1408,1847
1422,1863
1420,1862
1415,1856
1432,1875
1421,1862
1435,1871
1434,1866
1420,1848
1433,1869
1422,1856
1417,1848
1395,1820
1369,1792
1373,1800
1350,1774
1353,1757
1334,1751
1317,1735
1330,1745
1304,1720
1321,1719
1321,1744
1335,1773
1386,1826
1412,1864
1480,1928
1541,2019
1541,2019
1533,2021
1586,2067
2224,2701
2982,3620
2995,3713
2881,3579
2868,3531
2974,3622
3057,3692
2940,3571
2660,3252
2687,3272
2769,3363
2913,3509
3226,3856
3375,4016
3480,4129
3797,4475
4163,4858
4623,5341
5168,5886
5810,6526
6215,6924
6281,6982
6122,6822
5979,6665
6560,7247
7420,8207
7549,8421
6174,7024
3619,4366
2322,2959
1943,2531
1716,2276
1560,2092
1468,1992
1472,1998
1471,1991
1441,1959
1445,1960
1399,1905
1381,1868
1368,1852
1378,1864
1406,1895
1385,1864
1422,1903
1431,1920
1431,1920
1428,1912
1424,1909
1396,1870
1381,1840
1366,1834
1372,1837
1388,1855
1374,1828
1386,1833
1356,1809
1350,1799
1381,1830
1378,1830
1402,1858
1398,1864
1399,1871
1421,1901
1412,1887
1428,1904
1430,1904
1413,1884
1414,1887
1385,1847
1384,1843
1363,1813
1339,1787
1348,1802
1332,1781
1335,1777
1326,1767
1311,1750
1318,1761
1300,1737
1296,1711
1280,1697
1263,1680
1287,1701
1280,1696
1297,1694
1293,1704
1284,1699
1296,1708
1272,1689
1281,1685
1277,1697
1274,1699
1292,1710
1272,1695
1278,1693
1278,1712
1280,1705
1300,1721
1282,1711
1281,1706
1284,1723
1276,1701
1288,1708
1288,1708
1273,1697
1270,1689
1268,1697
1268,1686
1284,1702
1263,1682
1257,1670
1260,1684
1254,1669
1263,1683
1256,1677
1252,1669
1266,1687
1258,1680
1275,1705
1279,1708
1282,1709
1298,1724
1280,1710
1292,1728
1283,1714
1270,1698
1284,1702
1260,1684
1270,1698
1262,1678
1252,1669
1262,1676
1249,1666
1265,1681
1258,1672
1251,1667
1264,1680
1250,1665
1261,1676
1250,1666
1245,1660
1257,1675
1244,1662
1259,1673
1252,1671
1244,1662
1257,1678
1250,1669
1266,1681
1257,1681
1253,1673
1270,1693
1267,1689
1267,1689
1292,1712
1295,1729
1311,1739
1337,1770
1334,1767
1357,1791
1356,1797
1354,1795
1371,1815
1352,1794
1375,1817
1383,1832
1379,1831
1388,1847
1355,1805
1360,1809
1359,1803
1344,1789
1387,1842
1445,1908
1520,1998
1557,2047
1559,2059
1577,2085
1551,2055
1699,2173
2863,3323
4567,5086
6543,7142
8154,8855
9049,9819
8898,9593
6385,7037
3987,4570
3145,3772
2693,3299
2291,2864
2070,2608
2074,2588
2253,2802
2499,3073
2733,3347
2857,3475
2944,3546
2779,3371
2653,3220
2467,3023
2383,2914
2445,2969
2471,3012
2550,3097
3074,3676
4061,4741
5196,5983
6154,7024
7682,8641
14289,15874
34244,34767
51151,56791
51151,56791
58127,60835
32768,32768
9454,10243
3788,4145
2030,2320
1708,2048
1625,1992
1606,1985
1587,1976
1604,2002
1685,2083
1930,2339
1949,2358
1889,2308
1813,2228
1689,2091
1479,1884
1382,1791
1343,1760
1346,1768
1329,1747
1307,1729
1315,1739
1296,1722
1308,1731
1293,1717
1284,1708
1303,1727
1346,1759
1748,2085
2034,2309
2081,2344
2179,2443
2279,2526
2189,2436
2042,2318
1863,2153
1898,2188
1994,2264
2189,2434
2289,2546
2185,2470
2085,2393
2035,2351
2007,2329
2008,2331
2081,2395
2081,2395
2246,2542
2513,2777
3011,3227
3408,3590
3784,3945
4216,4374
4963,5124
5574,5753
6689,6887
8258,8522
9504,9875
8816,9199
7540,7930
5578,5974
3306,3659
2341,2691
1832,2185
1631,1971
1491,1857
1371,1756
1327,1727
1280,1693
1288,1681
1279,1691
1273,1688
1303,1710
1277,1694
1293,1692
1284,1713
1279,1717
1316,1740
1290,1730
1291,1718
1295,1743
1294,1735
1333,1769
1319,1773
1324,1775
1335,1798
1333,1769
1359,1781
1347,1776
1351,1768
1390,1812
1446,1839
1486,1877
1468,1863
1454,1843
1452,1849
1451,1845
1448,1855
1429,1839
1409,1814
1420,1821
1396,1802
1374,1793
1335,1753
1321,1735
1321,1735
1342,1752
1325,1741
1334,1756
1324,1739
1309,1727
1324,1737
1301,1720
1327,1751
1320,1740
1303,1726
1307,1734
1272,1698
1291,1714
1262,1688
1244,1668
1260,1698
1244,1675
1310,1752
1257,1704
1250,1683
1280,1723
1265,1695
1306,1723
1268,1710
1256,1684
1284,1713
1259,1687
1295,1722
1275,1714
1272,1706
1312,1756
1304,1755
1370,1842
1396,1882
1402,1893
1439,1948
1422,1919
1474,1984
1497,2013
1507,2029
1560,2111
1560,2103
1606,2159
1628,2180
1627,2184
1683,2262
1706,2287
1778,2360
1771,2374
1706,2303
1706,2303
1736,2331
1772,2394
1785,2355
1803,2412
1792,2409
1829,2428
1801,2410
1897,2494
2076,2763
2228,2977
2577,3417
2465,3286
2532,3335
2443,3248
2278,3033
2187,2889
2105,2809
2059,2749
2039,2749
2017,2708
2028,2705
2004,2692
2014,2695
2073,2790
2096,2800
2122,2820
2068,2766
2043,2724
2039,2730
2001,2660
1988,2638
1934,2576
1898,2522
1901,2522
1860,2463
1859,2462
1821,2406
1794,2370
1827,2401
1829,2406
1876,2473
1888,2479
1890,2483
1945,2534
1956,2572
2020,2657
2029,2656
2022,2652
2054,2680
2043,2675
2067,2699
2064,2690
2072,2703
2097,2732
2065,2697
2075,2704
2049,2680
2049,2680
2004,2630
1973,2587
1880,2476
1779,2354
1605,2156
1474,1984
1402,1892
1322,1781
1321,1754
1260,1706
1241,1669
1261,1691
1228,1651
1266,1679
1230,1660
1221,1635
1256,1674
1226,1638
1277,1688
1246,1661
1224,1637
1260,1696
1236,1665
1262,1699
1243,1668
1226,1648
1238,1665
1230,1656
1245,1675
1246,1673
1232,1659
1246,1679
1232,1656
1244,1663
1238,1659
1225,1644
1242,1667
1223,1645
1242,1640
1232,1647
1219,1639
1244,1658
1220,1640
1234,1636
1226,1639
1217,1635
1234,1644
1219,1636
1229,1635
1229,1635
1224,1642
1220,1638
1236,1648
1225,1645
1225,1645
1236,1666
1238,1660
1273,1688
1286,1717
1312,1749
1352,1818
1408,1873
1549,2039
1847,2402
2633,3304
3357,4102
3658,4325
4022,4632
4400,4965
5280,5855
5453,5943
5632,6138
7406,8352
10799,12313
14617,15594
20300,20961
23391,24629
18267,19264
14539,15524
14686,15664
15767,16783
16404,17553
19090,20444
24606,26477
21909,23293
19427,20298
19118,20181
18466,19585
18341,19489
17901,19028
18742,19963
19918,21312
21574,23128
21601,23181
21188,22721
20965,22508
19953,21486
19128,20618
18946,20491
17457,18865
18618,20071
19638,21084
20886,22428
20835,22431
21093,22709
23326,25183
24909,26856
26117,28252
26792,28904
26792,28904
26470,28582
27249,29358
33125,35628
32878,35500
30625,32922
28909,31091
28133,29929
25256,26483
20158,20988
20134,20669
21331,21839
20658,21013
26191,26307
30499,30826
22083,22250
14073,14183
8849,8958
5405,5527
3246,3303
2046,2281
1688,2052
1656,2074
1696,2168
1811,2327
1943,2510
2106,2724
2358,3030
2574,3315
2751,3548
2951,3812
3053,3955
2999,3913
2942,3886
2986,3957
3131,4159
3408,4508
3848,5047
4695,6101
6299,8101
9920,12632
20307,22475
23522,27578
34224,38860
63196,10189
14031,33827
20032,41670
33086,58835
33086,58835
28590,59143
28590,59143
21693,51587
20975,52062
21223,59339
64344,36272
60868,30760
58249,27330
53144,20270
49399,14938
46826,10197
45051,7908
45051,7908
44900,7623
45229,8030
46253,9226
46684,9673
46404,9333
45498,8209
45085,7715
44973,7563
45087,7759
45103,7746
44766,7309
44695,7214
44272,6780
43899,6335
43487,5807
42951,5105
42254,4212
41458,3294
40290,1635
38404,64607
37833,64051
37625,63859
36871,62810
36294,61859
35824,61266
35622,60974
35708,61098
35759,61162
35917,61397
36482,62187
36957,63007
38690,65333
41758,3803
44169,7087
44813,8067
43870,6981
42835,5641
42322,4970
42547,5270
42031,4600
40721,2989
39701,1714
39305,1196
38779,484
38497,127
38489,110
38489,110
38374,65493
38248,65433
38241,65460
38883,673
38224,65439
37367,64275
36671,63254
36485,63040
36656,63311
36405,62973
36138,62621
35630,61919
34939,61074
34295,60168
33414,58903
33054,58411
32767,57829
32423,57369
32171,57088
31899,56638
31622,56221
31576,56110
31713,56285
31945,56650
32061,56842
32181,57052
32188,57053
32125,56984
32061,56884
32073,56892
32169,57036
32328,57258
32372,57306
32484,57474
32628,57658
32826,57923
32957,58138
33159,58409
33522,58955
33840,59451
34019,59680
33947,59579
33783,59365
33655,59169
33653,59117
33846,59407
34279,60012
34546,60401
34782,60731
34976,60974
35179,61249
35257,61365
35345,61485
35791,62021
36282,62717
36476,62980
36313,62756
36068,62424
35926,62237
35912,62234
35912,62234
35713,61951
35581,61759
35588,61761
35723,61950
35891,62166
35958,62248
35969,62307
35957,62295
36023,62378
35928,62265
35682,61936
35172,61225
35132,61149
35108,61131
35101,61114
35152,61183
35210,61253
35251,61329
35122,61134
34931,60856
34540,60299
34252,59867
34164,59754
34100,59655
33973,59475
33913,59381
33884,59353
33978,59490
33942,59438
33911,59397
33837,59292
33888,59365
34179,59771
34957,60850
35644,61834
36543,63029
37668,64736
37996,65198
38646,421
38973,850
39281,1239
39524,1543
39762,1837
40039,2221
40321,2626
40379,2727
40499,2896
40378,2756
39938,2191
39717,1883
39189,1198
39189,1198
39350,1387
39645,1762
39858,2071
39835,2047
39669,1813
39836,2025
40274,2607
40801,3297
40918,3569
41172,3920
41024,3725
40772,3403
40561,3100
40477,2967
40440,2913
40493,2951
40519,2962
40428,2828
40659,3135
40521,2944
40270,2619
39539,1683
39100,1108
38998,956
39264,1305
40340,2675
41089,3654
40891,3394
40704,3117
41920,4584
42926,5797
42653,5486
42522,5336
42429,5193
42624,5575
42911,6060
42743,5905
42830,6238
43243,7113
42726,6601
40483,3760
38781,1570
36951,64746
36296,63703
35590,62682
35594,62702
35510,62583
35418,62439
35315,62282
35352,62322
35316,62270
35259,62191
35352,62350
35379,62392
35292,62280
34836,61656
34234,60907
33651,60035
33291,59471
33116,59188
33012,59019
33107,59104
33644,59786
34593,61069
35339,62067
35772,62605
36140,63058
36339,63313
36553,63594
37267,64519
37635,64984
37935,65353
38292,227
38460,456
38610,649
38758,847
38967,1103
39332,1597
39672,2055
40431,3038
40431,3038
40705,3408
40730,3450
40684,3405
40583,3291
39967,2465
39759,2195
39538,1905
38602,706
37807,65180
37752,65120
37900,65339
38224,219
38634,775
38839,1031
38935,1166
38766,946
38797,999
38910,1133
38513,607
38397,440
38408,475
38441,518
38524,625
38606,739
38596,723
38514,595
38400,409
38313,289
38265,234
38210,171
37826,65165
37453,64688
37231,64394
36841,63912
36454,63357
36080,62861
35866,62604
35822,62563
35599,62281
35251,61788
34829,61276
34741,61150
34749,61171
34714,61124
34691,61085
34753,61165
34753,61165
34814,61260
34730,61162
34417,60712
34303,60548
34291,60538
34276,60511
34230,60449
34208,60425
34189,60412
34088,60278
34051,60241
33995,60150
33995,60150
33894,60011
33917,60061
34016,60200
34058,60244
34072,60266
34064,60271
34030,60215
33983,60149
34025,60195
34124,60317
34236,60477
33990,60167
33765,59850
33483,59461
32928,58679
32857,58398
32938,58537
32996,58627
32990,58621
32967,58557
33099,58734
33442,59193
33959,59905
34379,60509
35100,61541
35712,62444
36200,63158
36562,63666
36956,64166
37191,64642
36774,64101
35826,62752
35470,62278
35318,62123
35325,62167
35152,61970
35170,61947
35201,61978
35124,61851
35162,61873
35200,61928
34980,61639
34619,61137
33987,60267
33528,59652
33409,59465
33309,59361
33309,59361
32578,58276
32138,57418
31626,56752
31249,56177
30994,55772
31414,56430
34158,60531
39777,3699
44684,10972
46755,13859
46900,14114
44771,11571
42123,7817
41458,6808
41661,7121
41556,6974
41247,6514
41078,6268
41148,6470
42673,8968
45973,13919
47294,16000
48316,17359
47728,16574
44704,12561
41943,8714
41093,7609
40913,7293
40697,6959
40969,7327
41576,8268
42616,9876
43189,10674
45195,13473
47480,16920
48131,18244
48203,18566
48152,18560
48413,18961
48481,19375
48155,18946
48000,18760
47716,18417
47435,18064
47383,17985
47411,18055
47410,18062
47408,18081
47408,18081
47572,18357
47626,18456
47510,18396
47529,18505
47338,18334
47131,18116
46991,17978
46936,17945
46789,17763
46789,17763
46674,17673
46694,17739
46684,17753
46719,17821
46734,17914
46753,17993
46782,17977
46637,17823
46482,17675
46444,17642
46379,17589
46336,17583
46367,17678
46417,17766
46475,17817
46600,17967
46719,18122
46893,18357
47050,18563
47163,18708
47275,18806
47392,18965
47475,19046
47553,19134
47597,19165
47621,19213
47593,19170
47599,19159
47596,19172
47571,19106
47573,19141
47607,19188
47685,19287
47795,19407
47852,19493
47911,19584
48019,19714
48252,19999
48410,20200
48675,20560
49162,21171
49637,21931
50194,22712
50907,23715
51667,24756
52151,25445
52151,25445
52444,25872
52837,26495
52837,26495
52716,26373
53173,26915
53554,27534
54084,28240
54524,28766
54428,28649
54932,29228
55413,29860
55865,30364
55947,30527
55578,30080
55158,29532
54612,28845
54437,28639
54145,28263
54145,28228
54058,28137
53969,28012
53688,27663
53288,27159
52889,26686
52474,26187
52293,25975
52221,25862
52308,25922
52345,25933
52488,26077
52555,26188
52164,25689
51433,24694
50971,24131
50867,23956
50934,24079
51284,24547
51511,24844
51638,24983
51530,24798
51200,24287
51252,24353
51385,24541
51303,24409
51743,24985
51988,25335
49325,21524
45772,16023
43692,11971
42572,10091
41874,9061
41916,9150
42393,9850
42737,10403
42967,10790
42716,10427
42604,10269
42742,10432
43116,11007
43220,11137
44025,12278
44025,12278
45846,14925
47374,16979
49711,20091
53167,24832
53290,25350
52166,23922
50131,21124
48253,18433
46939,16833
45895,15552
45285,14784
45048,14344
45469,14954
45979,15727
45892,15739
45709,15486
45736,15537
45533,15313
44925,14440
44809,14280
44531,13930
43212,12058
41720,9987
40740,8404
39765,6826
39090,5349
37497,2851
35209,64700
32996,61198
31611,58800
30336,56608
30703,56982
31103,57627
31467,58230
32071,59159
32586,60014
33143,60956
33174,61075
32424,59926
32241,59622
32597,60217
33064,60948
34553,63184
38481,4069
40824,7471
42732,10034
43999,11788
44655,12540
44655,12540
45039,13081
44953,13009
44587,12526
44210,12018
43997,11695
44175,11978
43967,11670
44033,11734
44132,11840
44031,11693
44217,11939
44841,12791
45949,14446
46362,15049
44392,12534
39890,5703
38676,4174
37965,3371
38220,3999
40434,7751
42633,11286
43616,12745
44861,14572
43537,12778
42899,11834
43205,12238
43768,13016
44235,13579
46006,15608
49233,18295
59341,30463
65415,37296
65444,37234
62229,33018
57868,27355
56301,25347
56145,25151
56752,25945
57024,26313
56656,25850
56376,25525
55102,24029
54096,22758
53233,21693
52754,21065
51779,20036
51820,20112
48958,16218
45586,11565
43393,8531
42828,8098
43418,9062
44390,10480
45428,11798
47197,14159
50304,18568
53281,22758
54599,24934
55257,26092
55257,26092
55414,26388
55342,26342
55324,26331
54561,25371
54572,25402
54942,25879
55130,26189
55452,26593
56011,27251
56284,27418
56797,27846
56984,27859
56596,27185
56088,26329
55261,25091
54574,23984
54440,23469
53731,21990
53455,21371
53685,21621
54069,22178
54515,22816
55093,23632
55317,23994
55324,24021
55334,24029
55276,23950
55145,23759
54916,23446
54582,22985
53780,21831
52757,20389
51993,19233
52117,19405
52401,19798
52776,20328
52822,20409
53136,20883
53312,21122
51711,18957
49184,15505
47897,13441
47761,13255
47823,13394
47171,12455
45926,10633
45229,9539
45229,9539
45197,9426
45008,9076
44669,8561
44238,8066
43790,7428
43425,6892
43120,6427
43041,6319
42924,6153
42765,5924
42654,5766
42504,5544
42391,5344
42097,4894
41997,4712
42100,4772
41713,4095
42047,4762
43203,6648
44553,8806
46738,12134
48524,14833
49249,16096
49383,16310
48927,15755
48311,14875
48150,14647
48288,14847
48761,15567
49262,16331
49948,17234
50708,18289
50994,18600
51546,19288
52268,20239
52760,20851
52885,21008
52363,20254
51753,19136
51286,18401
50579,17295
50071,16447
49812,16093
50284,16718
51349,18270
52819,20161
53613,21146
54616,23169
54534,23376
55097,23825
54579,22972
53671,21645
53147,20897
53511,21383
54161,22304
54714,23039
55460,24059
55616,24344
55575,24327
55167,23809
55167,23809
54058,22329
52691,20466
51670,19008
51355,18570
50898,17944
50737,17678
50728,17689
50659,17606
50816,17842
50872,17950
50546,17519
50198,17053
50507,17479
51698,19164
53916,22364
56755,26502
60112,31612
62712,35571
63515,36838
63218,36685
63834,37484
65061,39272
62908,36368
58090,29743
56642,27703
57039,28282
57857,29443
58395,30231
58793,30794
59160,31332
59638,31999
60314,32942
60945,33743
61369,34324
61497,34590
61547,34647
61328,34306
60753,33501
59569,31871
58573,30397
58607,30420
58764,30688
58238,29990
57208,28532
56728,27860
56907,28081
57950,29580
57950,29580
59694,32029
61164,33997
61470,34534
61404,34456
61507,34579
61722,34853
61975,35222
62010,35265
61962,35177
61805,34960
61606,34648
61439,34383
61250,34108
61132,33930
60957,33690
60802,33471
60627,33249
60619,33238
60717,33339
60915,33640
61095,33892
61225,34070
61204,34050
61204,34024
61234,34059
61144,33955
60859,33584
60384,32939
59663,31944
58994,30992
58328,30067
57829,29382
57342,28696
56898,28098
56475,27498
56290,27262
56209,27137
56390,27396
56747,27875
56866,28040
56846,27997
56724,27824
56609,27682
56479,27503
56317,27249
56068,26894
55864,26608
55733,26438
55623,26275
55606,26228
55508,26083
54663,24886
53619,23478
53659,23500
54019,24009
54255,24346
54140,24197
53787,23664
53485,23215
53485,23215
53781,23569
53942,23760
53788,23503
54136,23922
54497,24460
54772,24723
55320,25462
55900,26238
56514,27064
57107,27831
58712,29903
61493,33665
64455,37556
985,40347
1627,41195
488,39834
64129,37342
63017,35923
61947,34525
61993,34587
62864,35906
65515,39742
87,39704
65018,38566
65017,38552
64697,38156
63167,36296
61710,34490
58567,30286
57895,28270
59226,29372
59479,29198
59425,29114
57094,26190
56235,25010
56630,25714
53133,21630
48755,15861
45061,10843
42614,7296
42216,6554
42819,7349
43336,8077
44048,9000
44953,10231
45700,11191
45622,11018
45331,10520
45992,11393
46965,12655
48567,14826
50462,17362
51710,19032
51710,19032
52168,19650
52922,20615
53117,20832
53079,20778
53085,20782
53037,20739
53009,20701
53302,21095
53662,21627
53727,21646
56043,24350
55813,24186
55300,23524
54561,22680
54561,22680
53317,21158
51136,18343
49810,16656
48793,15448
47361,13657
44355,10004
41415,6073
40354,4589
40198,4382
40461,4826
41262,5924
41803,6447
44778,9756
53288,18380
255,34229
5193,40415
2258,37259
914,35839
2262,37869
1313,37107
78,35825
65443,35514
382,36214
3371,39225
4990,41105
4542,40245
3964,39503
17622,51148
23558,61426
15194,52194
5395,40733
58761,25895
50039,14985
46294,10582
45312,9534
45152,9433
45333,9786
45585,10226
45895,10703
46021,10927
46223,11220
46568,11675
47087,12328
47537,12920
47978,13498
48787,14525
50178,16227
50339,16368
50331,16299
49685,15483
49563,15298
51741,17828
51741,17828
52222,18273
51708,17473
51731,17265
51222,16557
51431,16845
50812,16125
49865,14962
49390,14406
49186,14148
49451,14462
49439,14453
49853,14926
50464,15693
50997,16332
51761,17276
52634,18412
53170,19242
53106,19374
53128,19340
53764,20073
54023,20455
54200,20734
56797,23996
59982,28251
60765,29327
62502,31599
64802,34278
586,35986
1016,36592
1600,37252
4968,41250
9615,46459
4048,40060
62413,31591
57233,25360
54124,21457
52194,18917
51215,17724
49605,15730
48071,13780
47672,13247
47434,12922
47317,12736
46826,12204
46329,11560
45810,10856
46092,11219
46149,11290
45833,10736
45478,9888
46037,10420
45630,9836
45588,9683
46798,11195
49005,13739
50834,15637
52530,17355
53680,18707
54065,19079
55039,20147
56186,21505
56367,21590
56873,21972
56873,21972
57168,22337
57855,23296
58963,24642
58773,25912
54284,21962
49689,16741
48120,15053
47532,14412
46050,12549
44338,10346
42618,8180
41044,6334
40231,5131
39532,4163
39217,3859
39862,4741
40839,6086
41244,6654
41492,7016
41503,6997
41566,7077
41709,7260
41214,6591
40898,6133
40825,6056
40716,5939
40422,5566
40061,5114
39860,4865
39775,4768
39640,4588
39548,4500
39259,4093
39067,3857
39130,3924
39121,3943
38887,3569
38754,3373
38892,3566
38868,3541
38854,3483
38784,3396
38629,3162
38737,3319
38828,3463
38786,3413
38796,3406
38671,3238
38671,3238
38678,3227
38632,3174
38575,3093
38081,2427
37796,2021
37870,2126
38052,2387
38153,2534
38131,2514
37958,2284
37814,2080
37692,1910
37739,1955
37735,1951
37679,1871
37575,1739
37335,1419
37216,1280
37217,1321
37308,1475
37360,1546
37460,1685
37664,1950
37808,2127
37894,2235
37944,2310
37933,2304
37823,2154
37803,2110
37918,2266
37866,2220
37841,2173
37772,2102
37626,1925
37571,1871
37611,1918
37556,1873
37357,1606
37045,1145
36841,736
36704,537
36401,135
35960,65146
35283,64202
34375,62908
33655,61854
33123,61149
32780,60444
32506,59920
32389,59681
32476,59644
32523,59618
32575,59633
32606,59560
32551,59331
33037,59969
32771,59437
32300,58476
31788,57424
31342,56654
31015,55773
30901,55307
30901,55307
30807,54905
30575,54384
30320,53865
30178,53569
30087,53385
30300,53709
30297,53711
30305,53729
30489,54002
30469,53991
30433,53902
30222,53552
30214,53396
30302,53455
30518,53596
30841,53980
30968,54126
30861,53975
30685,53626
30709,53616
31191,54426
31681,55209
32322,56176
33182,57571
33596,58209
33961,58783
34053,58920
34726,59928
36338,62188
37888,64615
38590,54
38617,100
39107,781
39721,1669
39764,1763
39219,927
38347,65264
37420,63931
36492,62640
36137,62246
35836,61974
35698,61814
35652,61691
35487,61384
35242,61011
35116,60527
35229,60552
35378,60587
34900,59935
34371,59098
34371,59098
34003,58582
34003,58582
33692,58177
33243,57584
32961,57298
32738,57118
32535,56827
32340,56617
32330,56826
32266,56916
32114,56880
32016,56956
32049,57281
32144,57495
32083,57463
32034,57352
32005,57328
31927,57300
31891,57183
31844,57003
31688,56769
31644,56692
31745,56885
31825,57034
31964,57234
32139,57500
32261,57669
32535,58091
33088,58925
33264,59152
33277,59129
33403,59322
33493,59436
33577,59575
33705,59783
33634,59679
33574,59574
33669,59699
33849,59953
34282,60619
34916,61560
35288,62045
35818,62855
36215,63400
36305,63510
36384,63609
36527,63823
36709,64095
36832,64292
36982,64633
37676,13
38310,791
39070,1722
39434,2241
39748,2690
40589,3842
41376,4920
41985,5780
42028,5914
41732,5492
41506,4966
41416,4651
41354,4500
40922,4024
40431,3312
40404,3256
40279,3078
42249,5436
41981,5077
41679,4682
41286,4172
40948,3816
40785,3521
40780,3529
40864,3669
40719,3493
40532,3211
40460,3132
40516,3193
40620,3313
40603,3307
40437,3066
40537,3179
40690,3429
40791,3585
41161,4074
41554,4635
41881,5036
41980,5141
42124,5320
42218,5437
42189,5368
42013,5103
41873,4929
41852,4887
41908,4989
41956,5060
41887,4980
41619,4599
41320,4177
41265,4095
41363,4218
41677,4645
41677,4645
42244,5436
42689,6048
42924,6340
42974,6427
42994,6421
43229,6756
43513,7177
43668,7392
43890,7684
43810,7509
43306,6802
42452,5605
42016,4983
42329,5374
42721,5912
42654,5824
42224,5258
42020,4976
42049,5016
42064,5037
41948,4867
41623,4412
41228,3873
41007,3572
40922,3448
40992,3538
41051,3632
41222,3834
41452,4146
41834,4644
42301,5248
42345,5338
42093,4999
41716,4476
41431,4111
40902,3374
40393,2656
40294,2537
40462,2756
40819,3247
41163,3706
41484,4149
41945,4727
42945,6096
43212,6476
43296,6561
43425,6710
43425,6710
43516,6811
44111,7574
45460,9393
46935,11339
47653,12296
48485,13356
48575,13490
48287,13131
48094,12824
48283,13080
48347,13171
48301,13128
48192,12986
47904,12588
47828,12504
47861,12535
47702,12330
47557,12128
47514,12098
47342,11869
47643,12253
48465,13433
48970,14277
49409,15304
49561,15892
49499,16063
49543,16229
49993,16785
50027,16905
49291,15948
48645,15082
48518,14882
48327,14624
47868,14011
47561,13577
47406,13381
47025,12870
46765,12488
46616,12290
46440,12126
46214,11807
46076,11595
46010,11504
46106,11634
46097,11639
46144,11702
46188,11752
46133,11683
46094,11623
46070,11577
45999,11480
45981,11516
46015,11525
46091,11623
46128,11677
46125,11673
46104,11641
46096,11644
46093,11622
46023,11525
46023,11525
46052,11572
46057,11567
45852,11285
45949,11412
46115,11644
46247,11829
46272,11857
46157,11717
46004,11483
45982,11456
45922,11382
45660,11024
45350,10601
45092,10221
45010,9980
44927,9868
44978,9944
45161,10180
45386,10483
45366,10466
45216,10255
45247,10282
45239,10277
45154,10165
45018,9998
45010,9988
44929,9870
44876,9785
44889,9793
44922,9848
44911,9839
44937,9880
44985,9932
45034,9993
45094,10092
45101,10111
45131,10139
45119,10112
45063,10062
45034,10033
44992,9963
44933,9889
44939,9908
44950,9901
44943,9910
44911,9856
44907,9838
44851,9763
44785,9686
44785,9686
44776,9657
44781,9676
44858,9779
44907,9842
44908,9847
44929,9892
44992,9968
45118,10127
45275,10338
45397,10527
45464,10616
45540,10717
45569,10771
45587,10812
45698,10944
45747,11014
45752,11029
45774,11040
45787,11090
45799,11097
45752,11037
45610,10837
45425,10582
45360,10484
45395,10518
45511,10700
45560,10761
45648,10871
45702,10914
45899,11189
46108,11444
46439,11878
46798,12344
47211,12888
47698,13513
48018,13918
47922,13786
47729,13495
47654,13356
47572,13229
47433,13048
47152,12650
46711,12050
46056,11131
45385,10183
45284,10001
45334,10075
45325,10059
45391,10132
45376,10111
45385,10095
45567,10310
45693,10465
45970,10836
46468,11502
46894,12105
46825,12022
46753,11939
46748,11941
46745,11909
46745,11909
46588,11705
46583,11669
46945,12186
47095,12405
47127,12446
47225,12579
47362,12771
47497,12939
47883,13458
48200,13886
48236,13946
47744,13314
47635,13127
47645,13114
46890,12147
45776,10621
45226,9892
44492,8908
44032,8307
43642,7925
43020,7170
42473,6397
41944,5666
41412,5050
41673,5512
42214,6364
42127,6310
41895,6001
41941,6260
41942,6647
41990,7109
41594,6703
41238,6408
41259,6560
41774,7318
41840,7436
41806,7461
42067,7899
42100,7965
41978,7850
42134,7994
41878,7614
41651,7261
41493,7025
41552,7032
41480,6719
41480,6719
41647,6780
42004,6981
42894,7121
43841,7648
44221,7777
44292,7467
44557,7491
44511,7247
44380,6869
44266,6735
44295,6609
43897,6073
43898,6042
43997,6164
44524,6827
44707,7018
44819,7188
44556,6829
44559,6824
44859,7181
45168,7605
45400,7927
45832,8514
46005,8811
46004,8802
45814,8636
45330,8135
45354,8255
45212,8203
44748,7661
44335,7119
44178,6916
44537,7375
44865,7834
44977,7987
45124,8198
45044,8089
45043,8099
45867,9104
47093,10639
47120,10889
46344,10562
44919,8903
44019,8056
43046,6561
42015,5196
41338,4329
41053,4119
41135,4684
41544,5211
42177,6053
42652,6619
42976,6989
43312,7444
43917,8236
43682,7857
43248,7263
42648,6442
42197,5804
41583,4942
41581,4897
41581,4897
41171,4323
41060,4145
41189,4317
41161,4307
41088,4181
41177,4274
41399,4525
41633,4815
41586,4884
41719,5047
41571,4920
41478,4806
41397,4696
41215,4465
40990,4222
40763,3926
40427,3479
40068,2972
39814,2645
40011,2908
39923,2790
39723,2515
39642,2390
39667,2430
39527,2261
39249,1942
38950,1524
38629,1078
38234,564
38206,502
38226,536
38310,652
38387,740
38388,755
38544,966
38476,880
38433,819
38285,634
37867,49
37580,65301
36996,64522
36429,63606
35839,62780
35242,61977
34498,61046
33848,60156
33416,59532
33018,58960
32974,58870
32974,58870
33100,59036
33314,59280
33799,59908
34391,60703
34672,61099
34755,61178
34594,60980
33617,59629
33241,59088
32909,58648
32760,58257
32738,58231
32444,57823
32248,57534
32154,57389
32079,57376
32048,57349
32118,57448
32354,57786
32604,58152
32751,58331
32972,58638
32880,58513
32665,58222
32537,58054
32473,57979
32402,57891
32252,57692
32285,57731
32303,57759
32250,57686
32114,57506
32019,57384
31954,57314
31945,57303
31893,57240
31833,57175
31651,56950
31418,56624
31314,56486
31105,56202
30794,55772
30651,55543
30510,55327
30554,55332
30701,55488
30857,55653
30922,55720
30835,55611
30801,55564
30710,55470
30621,55368
30582,55330
30525,55249
30446,55151
30373,55053
30223,54848
29973,54512
29639,54043
29639,54043
29224,53466
28915,53134
28745,52884
28605,52557
28427,52323
28254,52062
28080,51828
27905,51596
27686,51266
27503,50995
27440,50903
27433,50891
27419,50872
27403,50841
27383,50816
27370,50798
27358,50791
27394,50839
27537,51053
27665,51249
27785,51414
27783,51402
27788,51419
27847,51514
27860,51531
27900,51603
27893,51587
27897,51583
27919,51631
27995,51734
28387,52275
28844,52926
29017,53180
29383,53666
29581,53947
29833,54300
29959,54502
30417,55128
30349,55045
30469,55196
31074,56052
30881,55793
30925,55864
31214,56256
31881,57221
32554,58079
33260,59241
33831,60112
34122,60558
34122,60558
34162,60649
34200,60720
34255,60783
34454,61061
34483,61101
34799,61523
35251,62075
35842,62909
36107,63294
35949,63118
35949,63118
35978,63097
36220,63413
36464,63745
36767,64161
36820,64398
36897,64484
37509,65295
37948,318
38219,680
38169,605
38512,1020
38379,823
38199,591
38405,874
38125,500
37992,342
37636,65387
37479,65166
37393,65077
37144,64724
37474,65293
37733,217
37656,114
36965,64702
36685,64318
36705,64331
37100,64786
37391,65249
38427,1236
40970,5462
44687,11976
48691,17605
49531,18920
49912,19583
50123,19787
49513,19031
48636,18000
48378,17905
48166,17712
48337,17991
48853,18746
49603,19824
50365,20889
50827,21472
51230,21980
51365,22140
51694,22581
52043,23017
52744,23919
52744,23919
53588,25115
57569,30210
63116,37934
60554,34531
59092,32594
60941,34773
62921,36960
62514,36473
61490,34916
60790,33773
60503,33285
60264,32850
59893,32285
59553,31740
59966,32226
59955,32207
60187,32454
61803,34538
62275,35214
62449,35502
61842,34718
61365,34023
61427,34138
60635,33074
59956,32129
59511,31498
59600,31604
59145,30989
58724,30438
58358,29903
58681,30286
58744,30386
60690,32941
62474,35307
61968,34647
61814,34426
62203,34878
62358,35027
62335,35008
62809,35628
63214,36157
64688,37614
470,37488
1794,37100
783,34131
62856,30469
62434,30329
64162,31876
64910,31863
64911,31502
65357,31791
65417,31040
64546,28958
63954,27916
62601,26380
62973,27004
62973,27004
63993,28356
64506,28766
64506,28766
65294,29461
63930,27363
62582,25349
57507,18715
54578,14890
53753,13822
53023,12746
53251,13045
52708,12501
51714,11619
51811,11950
53686,14716
56333,18195
59407,21770
60511,22793
60611,22913
60732,23145
61333,23816
61470,24089
61480,24124
60991,23529
60407,22841
60075,22457
59862,22249
59900,22276
59761,22101
59037,21257
58201,20231
57082,18806
55537,17021
51900,12700
48252,8482
44819,4578
41561,1222
38813,64399
37060,63714
35592,62566
38356,1689
45694,11414
49639,16439
53963,21671
56515,25439
56998,25605
56448,24521
56608,24588
56734,24701
57700,26034
57963,26354
57963,26354
58361,26794
60023,28242
60066,27620
60446,28034
60683,28092
60474,27615
60344,27345
60538,27509
60298,27101
59798,25715
56667,19736
50638,11967
44589,8466
44508,12605
45640,13742
45619,12973
45300,12467
45117,12195
45101,12177
45259,12376
45292,12400
45434,12561
45674,12879
46064,13355
46591,14003
47051,14515
47939,15194
48093,14917
48121,14132
48156,13775
48650,13671
49335,13788
48905,13066
48184,12142
47396,11374
46959,11237
46492,12189
45525,11349
44744,11037
44305,11578
43733,11428
43501,11795
43561,12429
43529,12704
43093,12204
42942,12161
42975,12195
43069,12450
43597,13184
43914,13669
44125,13993
43992,13792
44338,14286
44448,14436
44844,15036
45379,15987
46298,17056
47164,18069
47609,18519
47609,18519
47933,18846
48273,19256
48514,19565
48777,19882
48990,20144
48955,20144
48710,19801
48487,19491
48304,19256
48134,19034
47910,18727
47782,18536
47817,18526
47812,18472
47721,18286
47471,17898
47436,17780
47272,17491
47061,17203
46709,16751
45739,15495
44318,13632
43394,12443
42976,11957
42934,11904
42952,11910
43428,12551
44211,13578
45045,14628
45411,15102
45622,15372
46414,16468
47749,18402
50837,23020
56219,29438
61588,34431
1973,38667
1933,38448
1642,38210
1944,38570
2429,39246
2808,39849
1806,38754
2605,39912
3965,41900
4882,43741
5867,45501
8272,48405
8272,48405
8086,48323
9767,50237
8607,49276
7144,47705
6846,47312
7907,48211
9523,48378
10524,48409
9971,47428
8426,45649
7784,44951
8032,45189
8715,45961
9095,46330
8475,45618
7909,44999
7679,44680
8299,45405
8331,45450
8229,45458
8110,45390
7953,45262
7941,45278
7389,44656
7271,44481
7352,44582
7412,44656
8021,45279
9595,46979
10056,47439
9396,46750
9396,46800
10405,47943
11566,49239
12314,50133
13510,51522
14513,52662
15677,53829
16570,54825
17594,55540
19720,57287
19606,57356
21573,61268
23374,64698
22324,64523
23507,65535
23860,65535
24801,65535
24789,65535
24037,65535
23424,65535
22556,65535
19652,63831
17947,61764
15926,59288
14554,57205
13459,55679
13459,55679
13514,55330
13803,55482
13273,54484
12434,53127
13271,54142
13425,54262
12888,53350
12186,52253
11917,51553
12099,51667
12212,51733
10924,50058
10289,49199
10551,49458
10050,48841
8424,46791
7556,45513
7224,45076
6527,44284
6001,43503
5399,42643
4631,41530
3551,39966
2719,38774
2009,37777
968,36443
40,35239
285,35561
65369,35014
65039,34429
64944,34291
64537,33817
63118,32098
61349,29822
60530,28686
59521,27541
58441,26115
57984,25541
57178,24494
57800,25271
58837,26627
59821,27897
60916,29186
61968,30584
62437,31135
62878,31640
63191,31994
62015,30398
61335,29428
61845,29939
62238,30465
62238,30465
61844,29998
60962,28837
60869,28728
60917,28742
60940,28746
61075,28888
61331,29224
61546,29449
61247,29023
60977,28427
61096,28363
60685,27535
60324,26902
60318,26857
59999,26427
60386,26942
60398,26930
60063,26542
59965,26367
60009,26447
59944,26378
60955,27593
62290,29378
62393,29540
63827,31360
64131,31970
65419,33811
1947,37380
1721,37938
64547,34737
63075,32896
60915,30236
58884,27809
56878,25155
55434,23120
54981,22849
54991,23066
53800,21726
52435,20068
52213,20171
51693,19640
51190,19034
51270,19249
51811,20036
52022,20365
52894,21679
53586,22737
54654,24415
55139,24992
56320,26291
56219,26048
56663,26540
55451,24920
52478,20783
51614,19485
52272,20301
53447,21845
54036,22335
53170,20791
51950,18796
52038,18740
52038,18740
51910,18609
51823,18502
51712,18394
51677,18361
51504,18106
50922,17362
50542,16818
50302,16531
49419,15406
49891,15990
52219,18953
54834,22293
56364,24229
57322,25396
56796,24724
56314,24071
56091,23729
56239,23861
56089,23632
55658,23011
55576,22801
55760,22933
56229,23455
56926,24291
58165,25816
59380,26656
59252,25811
59277,25182
59313,24648
58751,23805
57800,22564
56797,21283
56027,20331
54971,18978
55284,19314
56373,20663
58541,23417
60357,25766
60994,26635
62451,28589
63699,30091
65468,32227
624,33062
1038,33460
1844,34376
2460,35084
2822,35499
2822,35499
3925,36748
6173,39421
7114,40427
6555,39696
8411,41852
10343,44170
9627,43325
8196,41847
6424,39890
5505,38888
4024,37221
2791,35723
1684,34414
1640,34358
976,33610
498,32998
65332,32113
64608,31218
117,32494
1456,34244
1728,34653
2303,35348
2138,35174
1465,34399
1065,33917
620,33407
416,33152
435,33201
504,33285
832,33668
1273,34209
1746,34774
2993,36215
3508,36864
4113,37540
4653,38312
5908,39811
7540,41702
8143,42424
8785,43251
9942,44555
11513,46305
12945,48056
13699,48941
13724,48978
13883,49116
13985,49242
14275,49498
14734,49986
15059,50277
15344,50571
15691,50902
16143,51393
16913,52272
17735,53087
18548,53847
19535,54826
20630,55905
21339,56643
22104,57366
22104,57366
22768,58019
23214,58497
23293,58659
23185,58737
23020,58725
23196,58983
23503,59378
23506,59428
23435,59376
23381,59345
23459,59387
24140,60057
24049,59933
23666,59550
23597,59411
24102,59886
23875,59677
23771,59548
23735,59447
23570,59257
23509,59160
23716,59251
23430,58962
23100,58667
23178,58732
22968,58644
22737,58553
22712,58524
22428,58206
21544,57317
21172,56846
20878,56519
20204,55795
19448,55054
19900,55473
19931,55500
18482,53985
17636,53161
16956,52426
16289,51561
16512,51771
16602,51838
16690,51913
16671,51829
16391,51520
15783,50822
14919,49878
14203,49060
13730,48612
13538,48397
13167,48013
13167,48013
12839,47645
12760,47548
12765,47561
13013,47810
13165,47999
13151,48004
13180,48050
13114,47983
13088,47938
13106,47983
13276,48144
13276,48144
13432,48309
13470,48382
13611,48522
13485,48372
13416,48300
13605,48488
13772,48696
13714,48623
13422,48281
13274,48138
13388,48274
13212,48079
13306,48151
13679,48523
14363,49300
14663,49607
14500,49466
14334,49259
14325,49263
13978,48888
13502,48326
13207,47980
12817,47547
12101,46745
11285,45736
10558,44919
9716,44046
9051,43313
8645,42870
8563,42727
8421,42576
8442,42596
8320,42465
8351,42496
8452,42631
8755,42995
9032,43305
9341,43662
9598,43949
9734,44080
9772,44130
9764,44124
9774,44130
9784,44144
9763,44127
9759,44126
9737,44098
9737,44098
9699,44080
9683,44054
9683,44053
9686,44054
9685,44031
9742,44114
9737,44112
9734,44119
9725,44095
9726,44088
9692,44080
9678,44053
9690,44043
9678,44016
9644,44005
9520,43863
9510,43810
9532,43842
9511,43823
9470,43796
9487,43812
9512,43842
9501,43821
9483,43801
9513,43822
9533,43858
9497,43823
9442,43769
9551,43860
9748,44095
9995,44373
10274,44680
10463,44895
10718,45212
10742,45245
10867,45363
11140,45733
11164,45742
11144,45703
11288,45867
10992,45564
10403,44920
10089,44545
9992,44448
9875,44325
9819,44256
9930,44359
9989,44441
9990,44440
9990,44425
9902,44351
9829,44264
9758,44200
9736,44131
9748,44179
9806,44223
9770,44188
9735,44125
9792,44178
9792,44178
9762,44153
9649,44014
9536,43899
9374,43713
9215,43575
9269,43590
9196,43507
8910,43198
8853,43099
8769,43054
8587,42804
8558,42780
8350,42531
7969,42007
7577,41527
7231,41140
6903,40848
6407,40304
5918,39759
5437,39249
4868,38574
4314,37950
3895,37344
3305,36688
2706,36128
2083,35440
1621,34935
1134,34389
681,33881
381,33549
88,33206
65474,32917
65171,32659
65027,32498
64880,32317
64752,32175
64672,32107
64580,31991
64570,31999
64512,31929
64460,31865
64491,31904
64516,31928
64506,31916
64495,31901
64491,31897
64532,31933
64524,31929
64524,31929
64588,32006
64607,32026
64595,32027
64590,32027
64576,31992
64595,31999
64538,31918
64507,31900
64532,31960
64557,31968
64600,32026
64607,32030
64642,32064
64635,32047
64650,32071
64653,32077
64629,32045
64601,32034
64584,32014
64628,32017
64619,32043
64626,32059
64700,32154
64828,32296
64926,32414
65077,32609
65317,32878
164,33325
529,33759
737,34030
1105,34420
1431,34804
1586,34988
1793,35205
2147,35607
2627,36154
2897,36453
3105,36687
3385,36929
3692,37258
4229,37860
4989,38792
5626,39503
5754,39645
5819,39694
5944,39850
6293,40223
6590,40532
6948,40924
7269,41225
7635,41632
7823,41870
7914,41967
7944,42015
8003,42079
8236,42328
8429,42616
8678,42887
8992,43235
9310,43571
9631,43907
10063,44394
10063,44394
10472,44867
10753,45130
11541,46021
11857,46485
11821,46475
11824,46485
11446,46085
11341,45985
11553,46258
12065,46814
12872,47801
13840,48882
14330,49405
14374,49484
13873,48908
13285,48276
13136,48103
13142,48119
12924,47893
13063,48080
13466,48561
13874,49029
14038,49193
14391,49611
15122,50441
16110,51524
16762,52330
17425,53030
17754,53349
17785,53366
17905,53536
17944,53552
17962,53565
17901,53505
17938,53558
18119,53760
18474,54142
18733,54405
18998,54694
19118,54813
19213,54963
19157,54860
19088,54784
19068,54805
19112,54819
19084,54813
19005,54748
19005,54748
18973,54698
18969,54702
19020,54767
19088,54837
19112,54866
19022,54756
19021,54793
19043,54806
18891,54629
18743,54473
18611,54338
18594,54289
18576,54288
18439,54113
18364,54058
18339,54008
18275,53951
18085,53716
18075,53720
18046,53685
18051,53686
18034,53675
17938,53539
17872,53464
17837,53408
17874,53499
17765,53368
17799,53383
17797,53374
17800,53382
17849,53477
17883,53465
17934,53533
17989,53581
17980,53593
17955,53548
17940,53580
17938,53554
17912,53524
17944,53563
17904,53522
17856,53474
17822,53434
17739,53342
17685,53293
17732,53330
17745,53314
17713,53289
17728,53311
17732,53307
17759,53356
17813,53406
17824,53403
17815,53433
17834,53424
17844,53437
17824,53424
17786,53403
17769,53391
17791,53394
17791,53394
17817,53428
17811,53392
17756,53363
17708,53300
17672,53251
17616,53188
17524,53090
17440,53002
17272,52812
17111,52659
16915,52432
16744,52245
16642,52126
16542,52055
16491,51964
16345,51805
16172,51646
16050,51471
15900,51310
15745,51140
15513,50897
15327,50677
15147,50470
14997,50323
14828,50116
14670,49960
14535,49786
14410,49671
14318,49548
14246,49449
14196,49412
14148,49340
14078,49297
14048,49230
13986,49155
13883,49153
13864,49106
13819,49068
13747,49007
13686,48924
13642,48855
13557,48786
13502,48707
13498,48714
13491,48710
13517,48733
13503,48720
13497,48700
13497,48700
13499,48726
13494,48692
13492,48701
13470,48696
13438,48657
13424,48657
13419,48652
13351,48570
13335,48548
13348,48540
13301,48518
13227,48395
13129,48315
13053,48232
12969,48118
12892,48046
12812,47946
12764,47905
12689,47794
12641,47723
12612,47720
12545,47636
12496,47566
12485,47524
12510,47580
12506,47594
12494,47572
12469,47519
12441,47514
12405,47459
12387,47442
12384,47473
12430,47505
12405,47485
12440,47514
12434,47491
12438,47542
12441,47516
12467,47545
12455,47549
12464,47553
12464,47549
12449,47530
12411,47462
12386,47471
12404,47483
12367,47443
12341,47411
12305,47399
12355,47432
12428,47526
12472,47558
12526,47612
12543,47646
12606,47729
12651,47783
12694,47812
12725,47859
12762,47912
12788,47930
12788,47930
12813,47946
12864,47987
12942,48098
13043,48213
13145,48325
13284,48492
13451,48661
13683,48948
13902,49198
14188,49481
14501,49850
14838,50184
15190,50611
15355,50798
15292,50731
15477,50907
15913,51404
15892,51384
16202,51692
16881,52411
17267,52725
17978,53370
18310,53690
18172,53515
18181,53536
18077,53426
17006,52256
16557,51746
16559,51734
16438,51645
15846,51051
14925,50013
13584,48588
11849,46540
12064,46786
11915,46594
11003,45542
10667,45164
10976,45510
11956,46564
16252,51345
20143,55566
20913,56394
19922,55360
18085,53443
14655,49477
12465,47104
12465,47104
11470,45841
10821,45149
10761,45126
11813,46322
12789,47431
12986,47655
13009,47714
12983,47717
13101,47805
13062,47771
13389,48106
13628,48380
13882,48577
15463,50262
17280,52270
18982,54030
20732,55881
21826,56910
22447,57503
22884,57917
23344,58422
22785,57942
21590,56809
20981,56281
20342,55700
20005,55399
19855,55314
19327,54795
18725,54165
18322,53726
17242,52634
16365,51649
16031,51194
15490,50600
15416,50524
15418,50553
15281,50422
15041,50162
14698,49754
14214,49232
13683,48732
13083,48049
12742,47638
12821,47711
12855,47779
12973,47892
13326,48294
13727,48756
14314,49421
14800,49997
15088,50326
15144,50370
15158,50408
15258,50525
15456,50726
15830,51140
16324,51691
16901,52340
17239,52689
17630,53098
17630,53098
17720,53214
17818,53243
17868,53309
17787,53225
17790,53225
17942,53377
18063,53515
18089,53527
18127,53607
18061,53546
18042,53513
17976,53434
17958,53413
18062,53512
18234,53704
18429,53910
18680,54186
18779,54303
18738,54254
18760,54257
18849,54389
18960,54516
19314,54875
19528,55145
19519,55128
19627,55226
19977,55608
20420,56082
20899,56637
21212,56998
21586,57353
21894,57670
22085,57889
22289,58095
22401,58203
22496,58301
22505,58309
22510,58311
22601,58407
22607,58415
22636,58474
22620,58417
22610,58400
22610,58421
22666,58448
22686,58510
22704,58538
22706,58514
22706,58514
22693,58498
22621,58421
22595,58407
22623,58427
22737,58522
22853,58661
22626,58398
22282,58071
22024,57812
21966,57813
21966,57813
22078,57940
21463,57295
21031,56828
21028,56853
20843,56664
20581,56366
20547,56347
20362,56179
20272,56058
20180,55967
20072,55847
19951,55715
19818,55590
19770,55543
19782,55521
19766,55523
19762,55530
19604,55334
19565,55302
19489,55253
19544,55268
19402,55143
19209,54906
19073,54741
18987,54652
19076,54734
19111,54777
19097,54792
19152,54845
19288,54987
19569,55282
19913,55693
20207,56004
20541,56357
20932,56766
21451,57364
21761,57661
22057,57968
22121,58089
22127,58072
22333,58284
22197,58168
21702,57668
21233,57147
20404,56293
19814,55687
19710,55595
19710,55595
19684,55529
19355,55177
19048,54806
18849,54614
18744,54501
18581,54336
18355,54064
18312,54004
17957,53623
17341,52998
16851,52473
16508,52071
16313,51762
16332,51773
16433,51855
16466,51896
16381,51793
16588,51984
16875,52293
17103,52503
16891,52284
16382,51737
16029,51295
15655,50893
15220,50392
14746,49855
14356,49393
14042,49040
13505,48509
12990,47951
12615,47519
12155,46895
11498,46114
10976,45507
10585,45050
10372,44901
10647,45229
11028,45637
11771,46488
12555,47370
12726,47586
12612,47418
12806,47608
13350,48222
15066,50114
16219,51446
16411,51737
16406,51726
15931,51168
15203,50344
14554,49594
14036,49014
13437,48313
12958,47759
12648,47404
12442,47165
12385,47086
12269,46830
11984,46511
11700,46191
11637,46103
12052,46587
12007,46526
11935,46430
11800,46300
11800,46300
11672,46103
11603,46017
11714,46175
11888,46360
11756,46237
11683,46127
11643,46123
11586,46027
11418,45848
11472,45890
11527,45993
11479,45903
11491,45901
11554,46008
11555,45994
11516,45991
11517,45954
11477,45888
11405,45812
11421,45850
11425,45839
11444,45866
11385,45825
11347,45749
11344,45746
11422,45849
11408,45851
11405,45860
11434,45862
11479,45895
11485,45931
11493,45946
11538,45968
11530,45974
11548,46002
11532,45992
11582,46020
11621,46072
11629,46054
11672,46147
11651,46128
11606,46075
11626,46077
11631,46111
11626,46109
11632,46112
11642,46116
11640,46117
11614,46103
11558,46014
11550,46028
11533,46009
11533,46009
11526,45982
11519,45991
11506,45972
11500,45945
11437,45888
11458,45907
11424,45873
11404,45858
11428,45858
11418,45835
11384,45821
11361,45803
11360,45791
11348,45779
11330,45736
11302,45716
11309,45739
11248,45650
11188,45604
11205,45612
11242,45616
11234,45631
11185,45574
11178,45576
11223,45637
11206,45608
11231,45632
11220,45629
11250,45634
11273,45686
11252,45666
11272,45678
11236,45641
11192,45604
11189,45592
11199,45619
11211,45597
11242,45652
11249,45685
11198,45605
11195,45598
11225,45598
11210,45646
11188,45590
11215,45617
11187,45618
11196,45599
11201,45606
11178,45591
11158,45573
11116,45531
11097,45482
11016,45402
11032,45412
11052,45445
11028,45405
11002,45372
10959,45335
11006,45370
10965,45350
10930,45283
10947,45311
10893,45244
10892,45276
10900,45267
10900,45267
10928,45293
10913,45274
10965,45327
11014,45367
10999,45363
11037,45424
11031,45388
11016,45399
11004,45371
11003,45370
10998,45364
10965,45314
10970,45343
10993,45356
11028,45410
11020,45416
11030,45419
11064,45420
11039,45421
11055,45435
11052,45421
11030,45428
10999,45378
10982,45391
10978,45362
10991,45360
10971,45335
10962,45307
10932,45288
10892,45229
10836,45198
10840,45189
10836,45175
10826,45177
10816,45173
10833,45167
10838,45192
10869,45219
10884,45219
10908,45256
10881,45260
10903,45238
10869,45244
10877,45217
10890,45246
10930,45317
10930,45317
10992,45367
11018,45400
11018,45400
11052,45432
11040,45434
11045,45449
11072,45450
11073,45445
11045,45461
11041,45419
11030,45402
10991,45361
10986,45362
10959,45296
11002,45360
11039,45429
11016,45391
11013,45394
11029,45423
11026,45407
11032,45410
11015,45393
11038,45417
11030,45392
11053,45446
11066,45435
11058,45404
11056,45433
11070,45451
11077,45469
11049,45414
11034,45425
11028,45416
11039,45430
11044,45443
11071,45432
11122,45511
11137,45528
11175,45592
11199,45601
11202,45624
11221,45629
11265,45668
11308,45739
11344,45784
11391,45820
11459,45918
11428,45884
11461,45898
11488,45945
11518,45953
11528,45967
11544,45996
11598,46055
11670,46156
11685,46152
11660,46130
11634,46094
11578,46056
11598,46090
11597,46045
11628,46094
11628,46102
11613,46075
11597,46037
11560,46006
11562,46011
11562,46011
11558,46028
11559,45985
11565,46004
11536,46004
11493,45928
11484,45929
11480,45931
11491,45923
11450,45907
11467,45912
11530,45984
11539,45971
11574,46003
11506,45954
11475,45933
11524,45970
11582,46055
11610,46103
11611,46084
11635,46082
11615,46067
11626,46091
11601,46051
11619,46069
11605,46107
11619,46104
11621,46068
11603,46072
11648,46127
11744,46248
11781,46279
11796,46280
11819,46310
11844,46345
11840,46332
11853,46348
11817,46337
11796,46276
11776,46294
11725,46198
11691,46159
11639,46102
11541,46000
11534,46006
11488,45969
11415,45859
11376,45794
11338,45784
11338,45784
11370,45798
11437,45873
11549,46002
11627,46116
11729,46213
11884,46409
11896,46402
11902,46421
11907,46415
11877,46406
11897,46419
11862,46381
11862,46381
11898,46405
12002,46535
12049,46637
12159,46713
12160,46729
12155,46707
12193,46769
12193,46735
12181,46735
12123,46710
12117,46678
12081,46624
12022,46563
12038,46570
12020,46533
12000,46520
12020,46551
11979,46489
11983,46506
12000,46519
11989,46522
11995,46516
12017,46554
12054,46581
12034,46548
12038,46565
12056,46603
12079,46615
12099,46633
12156,46710
12152,46726
12182,46749
12195,46745
12193,46740
12232,46804
12179,46734
12172,46712
12125,46683
12046,46585
12046,46596
12038,46571
12028,46569
12006,46570
12009,46520
11995,46530
11954,46471
11948,46470
11976,46495
11926,46442
11899,46390
11908,46412
11918,46435
11918,46435
11938,46461
11924,46432
11944,46447
11956,46469
11975,46493
12009,46554
12015,46537
11981,46508
11971,46498
11965,46505
11970,46482
11983,46510
11968,46502
12003,46530
12027,46567
12008,46555
12024,46560
12056,46602
12044,46580
12085,46626
12099,46660
12143,46698
12167,46745
12173,46751
12210,46786
12222,46820
12215,46779
12201,46781
12210,46766
12183,46738
12159,46726
12094,46679
12066,46635
12075,46637
12080,46632
12082,46643
12054,46610
12071,46612
12078,46615
12089,46638
12101,46675
12122,46664
12153,46710
12135,46683
12121,46667
12098,46651
12041,46608
12023,46584
11972,46508
11942,46452
11922,46470
11943,46460
11951,46489
11974,46474
11994,46539
11966,46521
11988,46546
11992,46530
11981,46520
11985,46540
11975,46505
11973,46509
11956,46475
11956,46475
12024,46575
12094,46667
12097,46668
12064,46610
12052,46600
12080,46642
12073,46647
12009,46547
12016,46547
12027,46587
12127,46699
12217,46817
12243,46818
12251,46815
12256,46823
12298,46868
12267,46859
12236,46821
12175,46788
9404,44467
8624,43515
10643,45906
12929,48589
13231,48938
13075,48749
13133,48832
13106,48819
13076,48780
13140,48878
13263,48996
13348,49100
13436,49164
13509,49211
13619,49373
13857,49622
14175,50008
14401,50264
14525,50416
14574,50454
14634,50560
14702,50634
14686,50622
14637,50568
14622,50519
14650,50532
14633,50537
14621,50533
14550,50451
14535,50417
14498,50412
14491,50380
14491,50380
14377,50290
14377,50240
14383,50229
14322,50151
14288,50168
14216,50060
14260,50090
14271,50110
14243,50102
14272,50106
14276,50113
14350,50201
14415,50291
14432,50324
14482,50377
14478,50366
14479,50362
14499,50369
14528,50406
14516,50426
14472,50347
14440,50338
14391,50246
14359,50231
14297,50142
14255,50085
14218,50057
14205,50026
14205,50029
14197,50021
14199,50009
14237,50059
14231,50061
14255,50111
14231,50043
14214,50029
14236,50042
14222,50054
14251,50070
14221,50051
14224,50031
14172,50008
14191,50022
14200,50008
14301,50112
14413,50293
14431,50277
14406,50263
14433,50266
14416,50256
14360,50217
14338,50188
14363,50197
14344,50207
14359,50157
14272,50091
14232,50026
14283,50089
14236,50044
14236,50044
14233,50029
14209,50004
14115,49913
14099,49891
14039,49803
13997,49764
14014,49763
13994,49746
14003,49749
14005,49758
14013,49766
14005,49772
14016,49784
14011,49749
13974,49736
13924,49689
13887,49618
13855,49594
13793,49511
13764,49476
13768,49492
13723,49443
13746,49465
13747,49464
13750,49456
13800,49524
13794,49528
13805,49491
13789,49478
13769,49494
13784,49509
13725,49462
13780,49499
13754,49455
13759,49471
13732,49447
13708,49409
13705,49387
13695,49410
13692,49402
13676,49365
13671,49370
13661,49375
13622,49283
13614,49314
13622,49318
13634,49313
13631,49307
13631,49307
13659,49353
13685,49368
13666,49350
13681,49360
13697,49396
13690,49391
13754,49436
13771,49482
13693,49397
13714,49417
13729,49431
13725,49422
13750,49454
13760,49453
13778,49507
13786,49498
13769,49466
13760,49474
13736,49448
13748,49462
13763,49489
13775,49475
13733,49458
13653,49357
13646,49325
13616,49306
13618,49273
13590,49283
13568,49239
13488,49160
13417,49081
13417,49046
13435,49093
13420,49078
13429,49078
13413,49078
13436,49071
13436,49094
13431,49042
13427,49092
13416,49071
13411,49049
13421,49078
13401,49042
13390,49031
13387,49038
13408,49051
13412,49061
13431,49058
13407,49056
13394,49043
13375,49026
13392,49029
13375,49020
13369,49025
13365,49025
13391,49013
13379,49005
13364,49008
13337,49006
13329,48964
13335,48963
13349,48979
13389,49040
13438,49097
13430,49097
13430,49097
13382,49054
13368,49052
13345,49009
13313,48951
13279,48910
13278,48888
13251,48877
13165,48788
13141,48769
13138,48766
13131,48744
13113,48723
13116,48701
13087,48682
13080,48684
13025,48624
13008,48597
13017,48594
12997,48596
13010,48601
13008,48621
13036,48625
13020,48625
13066,48678
13118,48718
13117,48723
13163,48799
13209,48818
13211,48797
13198,48820
13190,48784
13192,48811
13168,48792
13184,48797
13177,48794
13172,48785
13164,48798
13154,48721
13150,48741
13150,48739
13142,48742
13146,48752
13136,48687
13126,48719
13125,48691
13122,48729
13087,48672
13083,48674
13059,48689
13078,48641
13072,48658
13078,48660
13078,48660
13074,48653
13113,48697
13091,48676
13122,48703
13122,48702
13219,48833
13278,48885
13300,48936
13367,49021
12644,48107
11997,47246
11431,46510
11431,46510
11241,46190
11416,46403
11353,46342
11320,46319
11352,46388
11113,46081
10677,45536
10561,45376
10573,45328
10475,45175
10891,45656
11358,46175
11903,46786
12020,46926
11968,46865
12044,46952
12451,47424
12413,47378
12567,47531
12880,47885
13017,48038
13051,48078
13092,48105
13235,48296
13178,48208
13136,48176
13221,48288
13039,48087
12860,47870
12861,47861
12739,47761
12691,47707
12489,47454
12363,47343
12343,47304
12360,47316
12425,47401
12467,47432
12262,47228
12109,47028
11898,46802
11888,46773
11886,46770
11934,46812
12042,46923
12021,46928
12062,46988
11793,46678
11246,46070
11123,45901
10902,45701
10447,45208
10447,45208
10424,45174
10467,45214
10413,45182
10344,45193
10592,45456
10631,45508
10696,45548
10819,45717
10902,45806
10978,45883
10984,45906
10877,45786
10777,45670
10671,45574
10603,45452
10548,45396
10488,45339
10449,45300
10378,45187
10325,45160
10335,45159
10337,45169
10299,45109
10321,45120
10331,45143
10262,45087
10302,45123
10311,45113
10254,45051
10219,45043
10232,45040
10232,45048
10221,45047
10289,45084
10314,45125
10346,45166
10383,45224
10367,45194
10390,45241
10404,45254
10385,45229
10347,45160
10328,45167
10315,45144
10238,45059
10187,44993
10159,44951
10138,44917
10091,44878
10082,44889
10090,44881
10109,44906
10153,44963
10195,44994
10164,44958
10137,44942
10037,44830
9883,44676
9767,44550
9767,44550
9574,44350
9519,44257
9463,44210
9403,44119
9321,44034
9222,43943
9198,43888
9171,43843
9164,43848
9115,43797
9046,43723
8967,43646
8846,43487
8848,43513
8912,43558
8921,43589
9035,43700
9113,43798
9325,44033
9641,44410
8880,43537
8634,43237
8478,43085
8076,42586
8368,42818
8543,42980
8119,42572
6328,40418
5721,39666
5714,39704
4105,37772
4236,37800
6196,40183
8946,43653
9459,44339
9229,44048
9325,44053
8851,43486
8736,43339
9374,44104
9494,44255
9134,43825
9176,43875
9752,44516
9730,44529
9333,44056
9609,44399
10014,44860
10277,45142
10419,45312
10222,45072
10186,45032
10186,45032
9650,44420
9178,43863
8976,43616
9333,44027
8928,43524
8554,43060
8147,42588
7954,42341
7771,42138
7579,41916
8109,42521
8636,43163
8724,43256
9034,43662
9208,43864
8858,43445
8525,43028
7985,42305
6853,40873
6069,39971
5181,38865
4639,38196
5168,38811
6551,40470
7742,41930
7901,42155
8210,42605
7747,42041
7617,41885
7955,42310
8120,42538
7963,42376
8211,42644
8549,43035
8856,43413
8908,43491
8973,43526
9163,43758
9602,44259
9825,44533
9985,44739
10133,44897
10253,44996
10538,45349
10497,45289
10375,45135
10181,44925
10032,44752
10254,44997
10661,45520
10885,45774
10978,45893
11077,46023
11138,46101
11104,46059
11095,46046
11190,46169
11190,46169
11307,46302
11374,46392
11416,46455
11197,46233
9606,44393
8386,42950
6173,40310
5566,39608
5632,39628
6593,40822
4734,38722
2583,36099
2673,36132
1565,34822
64008,30825
62835,29303
63014,29491
64036,30766
7,32663
2010,35257
1483,34667
187,33038
64700,31760
64892,31996
65522,32768
638,33571
1154,34192
1428,34482
1477,34559
1541,34666
817,33762
2840,36236
4409,38152
4555,38481
4806,38765
7085,41549
6538,40886
5981,40190
6132,40301
7796,42291
8138,42778
5636,39871
4390,38400
4005,37806
3661,37352
3644,37291
4108,37831
3802,37445
2173,35489
1895,35083
1992,35197
1992,35197
2696,36062
4067,37784
5693,39759
6871,41175
6573,40784
6355,40488
6467,40607
7686,42059
7992,42457
6866,41042
6150,40063
5763,39606
5702,39522
5662,39495
5482,39241
5794,39595
6628,40589
6923,40961
7040,41052
6639,40550
6543,40421
6277,40068
5877,39579
5375,38996
5720,39362
5915,39624
5544,39149
5270,38807
5590,39199
5982,39713
5731,39412
6085,39871
7267,41280
7993,42230
10181,45022
12482,47924
12799,48375
11459,46793
11576,46887
14699,50421
15616,51451
17048,53102
17401,53494
17538,53627
17741,53852
17458,53504
17520,53446
20481,56986
21257,58209
20533,57376
20603,57486
19861,56599
19670,56355
19728,56442
19811,56522
19858,56614
19939,56707
19025,55621
18550,55129
17103,53426
16612,53007
16612,53007
8871,43976
9020,44411
7956,43370
7140,42383
4927,39822
3304,37717
2396,36645
2993,37284
3353,37740
3982,38446
1569,35573
383,34107
4171,39302
2419,37343
124,34404
65510,33982
65299,33725
63094,30979
61673,29096
62957,30715
62486,30016
61736,29027
61488,28701
62507,29871
64048,31774
65397,33439
1195,35006
1607,35376
1492,35190
65517,33198
64939,32379
64046,31264
63471,30494
64186,31385
1164,34420
4752,38755
7618,42132
7302,41788
6384,40617
6153,40257
7259,41657
8202,42959
8744,43770
7943,42835
8184,43087
8341,43215
11405,46712
11438,46755
11670,46988
12251,47661
12251,47661
12658,48242
12863,48525
12971,48775
11995,47632
12272,47933
14423,50429
14991,51222
9681,44982
6579,41017
7824,42587
7824,42587
8194,43032
9162,44410
8639,43909
8843,44346
8748,44304
8672,44190
11455,47838
12786,49723
13233,50436
13035,50216
11615,48637
6811,42983
504,35303
61812,29987
58971,26206
57887,24679
58685,25815
58695,26048
58378,26562
57502,26203
56821,25288
56334,24877
51939,11518
50936,10474
50333,9897
50050,9607
49891,9462
49682,9233
49750,9312
49957,9558
50122,9790
50352,10069
50611,10395
50827,10651
50927,10751
50950,10775
50957,10787
50943,10766
50920,10748
51005,10849
51222,11119
51355,11288
51681,11663
51747,11752
51664,11651
51694,11689
51864,11874
51995,12069
51908,11955
51954,11955
51914,11932
51914,11932
51870,11901
52160,12284
52301,12445
52365,12523
52463,12668
52778,13103
52835,13185
52938,13320
53403,13953
53573,14207
53728,14419
53728,14419
53769,14495
53736,14499
53644,14373
53693,14418
53496,14234
52330,12826
51735,12134
51983,12480
52461,13142
53072,13934
53638,14638
55314,16747
57793,20010
59376,21970
60007,22746
60024,22743
60225,22948
60307,23033
60602,23418
59864,22442
59527,21998
59769,22349
60082,22768
59688,22286
58664,20826
58570,20463
59197,21194
59246,21241
58673,20549
57587,19229
56268,17614
55636,16851
55132,16263
54141,15119
53523,14399
52934,13683
52426,13091
52251,12931
51903,12683
51928,12981
51612,12844
51232,12512
50962,12276
50992,12470
51069,12583
51106,12634
51080,12588
50992,12463
51001,12484
50997,12510
50904,12437
51001,12528
51394,13012
51394,13012
51809,13520
52435,14299
53345,15441
53793,16032
53631,15802
53511,15647
53742,15890
54049,16262
53757,15926
52749,14673
52870,14812
53978,16268
54817,17294
54367,16755
53450,15701
52282,14448
51495,13673
50959,13138
51077,13459
50500,13005
49418,11998
48500,11211
47985,11129
47359,11362
47582,12751
48056,13906
48551,15045
49660,15754
50895,15723
50970,14296
50491,12685
50264,11374
50240,10427
49737,9208
49079,8386
48261,7740
47071,6721
46015,5703
45563,5291
45128,4911
45078,4803
44869,4589
44669,4400
44990,4906
46682,7221
48541,9756
49234,10756
49648,11424
49635,11377
50031,11769
51261,13245
52289,14571
53458,16070
53942,16572
54986,17769
55472,18196
56149,18941
56428,19205
57152,19990
59994,23513
62540,26615
63892,28108
64810,28945
64810,28945
428,30326
2260,32509
4783,35347
8272,39392
10010,41554
9935,41552
9131,40671
8446,39958
7518,38954
7593,39264
6396,37943
4449,35861
3190,34303
1844,32746
64628,29581
63565,28488
63989,29100
62877,27909
61321,25983
61953,26819
62711,27796
64049,29418
64247,29729
64045,29425
64823,30401
65207,30932
80,31458
817,32396
2573,34427
3336,35512
3143,35296
3761,36064
4719,37338
5530,38234
6308,39190
4436,37030
3207,35497
2970,35134
3349,35545
2954,34957
3378,34869
4906,36372
7214,38852
7035,38323
7186,38481
6581,37785
5813,36935
6542,37610
7857,38962
9684,41190
9684,41190
10762,42584
12430,44658
14229,46760
16700,49526
17961,51155
18878,52364
18857,52502
17424,51042
15393,48716
12780,45916
8177,40783
5684,37865
4637,36687
3976,35918
4244,36196
4652,36651
5434,37477
6385,38593
6886,39226
6966,39309
7130,39571
7718,40627
8747,42133
9586,43422
10310,44364
10804,45127
11670,46216
12671,47705
12939,48098
13283,48552
13386,48700
13296,48681
13205,48642
13057,48471
12728,48121
12591,47931
12506,47822
11393,46541
8550,43144
6797,40926
6022,40060
5707,39699
5786,39835
6345,40556
7432,41900
8467,43221
9015,43904
9916,45024
11018,46377
11166,46607
11608,47138
11501,47031
10703,46079
9730,44949
9435,44641
9545,44815
10292,45772
11555,47357
12228,48219
10704,46606
8501,43936
5986,40681
2269,36033
652,33984
652,33984
885,34298
723,34064
712,34063
831,34238
1184,34682
2086,35819
3062,37028
3449,37507
3808,37911
4530,38762
5086,39468
5097,39464
5503,39929
6713,41327
7911,42748
8979,44003
10865,45907
12964,48421
14524,50139
16320,52199
17239,53317
18035,54100
18695,54873
19078,55294
20743,57185
21616,58128
21210,57518
20495,56528
20081,55921
20151,56020
20461,56413
20800,56781
20657,56649
20315,56251
20121,55994
19489,55244
18551,54158
17466,52869
16560,51829
15665,50668
14362,49160
12488,47036
11542,45782
10978,45138
10762,44932
10880,45085
10891,45077
11774,46157
11774,46157
12457,46998
13420,48159
13408,48195
12398,46828
13193,47690
13303,47701
12980,47286
12325,46395
11549,45430
11294,45118
11572,45477
11482,45439
10652,44428
10850,44694
10652,44456
10056,43740
10127,43816
10893,44777
12008,46148
12384,46633
12355,46581
12195,46412
11993,46149
11912,46066
11605,45703
11000,45001
10608,44525
10528,44416
10570,44468
10647,44536
10741,44650
10846,44811
10898,44867
10997,44964
11475,45581
12100,46333
12771,47126
13496,47996
13483,47994
13674,48190
13693,48223
13588,48072
13482,47950
13587,48082
13547,48007
13160,47543
12789,47110
13142,47542
13296,47723
13063,47458
13431,47897
13537,47998
13680,48185
13287,47697
12952,47311
13197,47571
13122,47507
12224,46502
11982,46249
12169,46492
12150,46459
12124,46442
12548,47020
12548,47020
12722,47260
13240,47894
13240,47894
13654,48350
13705,48441
13868,48601
14083,48833
13093,47759
12141,46711
11943,46458
11904,46473
11411,45890
9889,44162
8336,42351
7876,41745
7735,41568
7457,41287
6659,40414
5793,39383
5215,38690
4473,37799
4005,37255
3540,36652
1733,34534
530,33029
65518,32441
12,32331
377,32759
1031,33592
1689,34443
2082,34964
2292,35203
2853,35918
3312,36465
3457,36671
3475,36667
3543,36747
3598,36781
3481,36647
3427,36546
3389,36500
3341,36466
3391,36514
3391,36528
3410,36544
3463,36583
3580,36743
3840,37022
4082,37328
4073,37437
4090,37467
4235,37633
4289,37713
4289,37713
4535,37992
4938,38494
6130,39993
6489,40438
6619,40596
6809,40838
6593,40576
6537,40523
6752,40817
6752,40817
10357,45219
13030,48544
13030,48544
17564,53927
19809,56468
19940,56574
19656,56187
18778,55101
18931,55221
18791,55028
17946,53920
16864,52511
16797,52305
16826,52277
16725,52094
17064,52503
17442,52922
17542,53066
17973,53504
17864,53411
18114,53610
18591,54123
18871,54446
18898,54449
18773,54306
18052,53598
16962,52430
15356,50570
13851,48814
12861,47741
12111,46773
11199,45665
10974,45402
10634,44999
10191,44537
9763,44037
9094,43209
8822,42883
8723,42771
8644,42689
8628,42703
8735,42819
8669,42778
8384,42442
8190,42212
8170,42052
8493,42464
8617,42612
8556,42538
8368,42264
8099,41963
8206,42067
8303,42187
8303,42187
8133,41956
8118,41905
7945,41662
7620,41231
8083,41800
8354,42136
8446,42257
8595,42470
8526,42395
8318,42136
8298,42107
8334,42126
8380,42194
8460,42296
8797,42715
9114,43089
9414,43482
9592,43715
9565,43705
9557,43685
9891,44105
10065,44310
10668,45063
10896,45294
11062,45498
11004,45389
11129,45535
11185,45565
11126,45431
11194,45514
11654,46036
12113,46632
12553,47230
13031,47740
13520,48325
13815,48649
13948,48791
14280,49193
14513,49449
14642,49608
14666,49600
14691,49618
14590,49481
14467,49355
14783,49713
15039,50047
15045,50056
15135,50108
15196,50204
15146,50125
15223,50200
15017,49928
14518,49293
14201,48887
14063,48736
13928,48581
13721,48329
13500,48050
13247,47765
12971,47395
12673,47020
12371,46651
12225,46468
11953,46129
11953,46129
11541,45616
11251,45251
11059,45016
10917,44956
10714,44715
10569,44529
10396,44355
10201,44105
9836,43677
9813,43637
9738,43562
9688,43467
9728,43545
9987,43867
10024,43922
10055,43965
10310,44280
10593,44622
9822,43715
9037,42756
8741,42403
8533,42132
8326,41922
8118,41516
7797,41166
7573,40916
7055,40426
6393,39643
5967,39131
5268,38309
4724,37678
4128,36975
3130,35711
1725,34014
1046,33154
433,32520
53,32058
42,32042
65460,31775
65317,31567
64995,31166
63718,29624
63187,28931
63283,29059
63552,29420
63931,29896
65023,31354
210,32315
336,32486
195,32322
195,32322
33,32095
65381,31820
65335,31751
386,32504
646,32843
402,32517
65447,31870
65224,31567
64374,30491
63949,29939
64347,30431
64961,31212
9,31951
937,33065
1430,33694
1612,33959
1641,33990
1647,33981
1854,34245
2019,34465
2135,34620
2348,34864
2869,35497
3343,36122
3665,36497
3952,36839
4460,37579
5262,38575
5802,39223
5840,39222
5798,39131
5817,39159
5842,39185
5952,39305
6126,39519
6273,39701
6209,39603
6179,39517
5812,39056
5484,38662
5188,38257
5304,38393
5341,38499
5522,38623
6046,39218
6775,40063
6697,39976
6689,39913
6923,40162
7042,40263
7063,40204
7093,40245
6675,39685
6636,39612
6501,39459
6039,38823
5992,38745
6232,39038
6232,39038
6371,39191
6786,39690
7838,40924
8562,41862
9148,42591
9218,42671
8676,41993
8220,41422
7717,40796
6949,39828
6721,39551
6722,39537
6741,39584
6775,39594
6766,39608
6678,39526
6719,39593
7569,40666
8807,42221
9264,42790
8569,41896
7882,40960
8228,41346
8288,41383
8716,41902
8799,41994
8911,42128
9171,42440
9097,42358
8781,41966
8798,42029
8927,42172
8658,41856
8580,41764
8577,41764
8727,42003
8545,41790
8175,41337
7953,41062
7915,41008
8201,41404
7973,41128
7477,40608
6573,39528
5686,38463
4975,37578
4140,36625
3515,35742
3515,35742
3254,35410
3177,35322
3130,35285
2965,35051
2830,34887
2872,34927
2941,34998
2870,34951
2606,34568
2581,34488
2766,34739
2849,34813
2806,34800
2702,34683
2586,34529
2414,34295
2355,34192
2347,34208
2343,34185
2573,34499
2802,34802
2872,34900
2770,34798
2685,34677
2662,34660
2790,34831
2968,35052
3149,35325
3687,36073
4208,36751
4443,37074
4586,37248
4761,37481
4973,37761
5056,37858
4893,37653
4725,37430
4672,37366
4799,37549
4717,37471
4599,37291
4575,37334
6302,39467
6165,39335
6077,39191
6259,39369
6170,39232
6106,39107
6063,38983
6334,39256
6999,40036
8205,41357
8850,42200
8897,42207
8724,41952
8934,42146
9405,42644
9904,43173
10485,43814
11122,44533
11122,44533
11704,45200
12211,45779
12551,46222
12799,46434
12994,46707
13503,47278
13657,47435
14155,48039
14329,48252
14379,48281
14274,48186
14155,48023
13881,47739
14174,48056
14256,48164
13859,47811
13807,47876
12650,46579
11369,45059
11323,45011
11227,44915
11125,44828
11516,45303
11356,45083
11127,44795
10824,44395
10422,43876
10025,43338
10011,43347
10169,43552
9928,43257
9950,43259
10338,43714
10576,43963
10795,44239
11110,44644
11346,44914
11490,45083
11655,45242
11979,45638
12400,46101
12812,46507
13099,46844
13506,47263
13780,47567
13656,47389
13523,47184
13523,47184
13829,47522
14181,47902
14240,47967
14062,47730
14207,47916
14329,48047
14556,48316
14562,48306
14488,48239
14552,48320
14491,48230
14597,48364
14553,48320
14454,48208
14464,48196
14550,48280
14754,48556
14950,48793
15193,49034
15076,48910
15060,48896
15050,48887
14988,48837
15395,49284
15746,49725
15818,49841
15904,49910
15720,49669
15330,49193
15093,48942
14842,48623
13829,47396
12254,45453
10143,42937
8503,41015
7566,39864
6616,38691
6013,37925
5891,37813
5844,37761
5668,37530
5711,37596
5744,37641
5588,37508
5394,37274
5194,37061
5038,36894
4974,36840
4987,36902
5088,37016
5077,36980
5237,37199
5474,37498
5510,37544
5530,37539
5467,37473
5392,37405
5338,37327
5164,37124
4984,36876
4984,36876
5014,36930
5040,36960
5142,37092
5206,37152
5362,37346
5383,37392
5263,37223
5156,37088
5136,37078
5111,37032
5126,37051
5253,37211
5324,37304
5408,37410
5300,37285
5209,37198
5131,37069
5152,37102
5162,37110
5279,37258
5457,37468
5566,37611
5619,37682
5725,37800
5709,37778
5695,37778
5670,37750
5670,37762
5613,37659
5518,37571
5338,37350
5076,37050
4833,36767
4521,36381
4103,35904
4022,35676
4125,35830
4431,36221
4637,36511
4956,36925
5492,37637
6358,38764
7153,39812
7691,40491
7914,40832
7777,40662
7618,40496
7599,40466
7599,40466
7599,40468
7864,40804
8211,41225
8555,41775
8977,42309
9400,42822
9623,43109
10097,43644
10575,44291
10722,44413
10722,44413
11743,45602
13211,47542
14569,49217
16043,51020
17768,53157
19542,55284
20689,56706
21540,57738
21790,58078
21743,57985
21240,57355
20930,56963
20651,56615
20264,56111
20244,56090
20405,56283
20805,56757
20789,56733
20636,56570
20460,56350
20133,55949
19912,55633
19693,55391
19542,55187
19642,55311
19703,55374
19631,55306
19762,55448
19990,55755
20285,56120
20173,55950
19694,55365
18840,54329
18232,53595
18008,53355
17812,53146
17900,53242
18021,53380
18225,53631
18350,53776
18402,53845
18575,53994
18527,53982
18372,53790
18245,53631
18239,53629
18273,53654
18304,53700
18187,53529
18187,53529
17885,53165
17792,53104
17770,53054
17291,52456
17100,52214
16717,51772
16275,51149
15939,50754
15880,50683
15979,50804
16058,50914
16014,50815
16085,50886
16519,51443
16525,51413
16550,51438
16613,51534
16683,51618
16731,51672
16878,51814
16969,51943
16974,51960
17123,52117
17099,52087
17019,51976
17162,52162
17525,52604
17814,52949
18709,54067
19398,54937
19592,55185
19144,54685
18921,54460
19193,54826
18962,54574
18827,54421
18383,53913
17753,53146
17533,52863
16991,52220
16080,51148
15154,50025
14006,48686
12915,47353
12179,46462
12065,46140
12280,46341
12391,46511
12807,47014
13595,47971
14214,48738
14357,48907
14414,48927
14700,49291
15180,49932
15567,50385
16054,50983
16491,51531
16463,51589
16463,51589
16024,51043
15631,50555
15561,50449
15345,50203
15398,50281
15237,50069
14997,49758
14977,49735
15224,50030
15371,50200
15368,50245
15502,50405
15670,50620
15895,50895
16176,51244
16516,51674
16615,51764
16498,51594
16807,51975
16998,52208
17228,52494
17690,52979
18626,54080
19210,54815
19674,55388
20515,56417
21830,57984
23105,59500
23609,60114
23966,60523
23723,60227
23517,59953
23373,59748
23201,59523
23013,59281
22942,59193
23168,59465
24218,60701
25517,62254
26384,63294
26799,63722
26941,63885
26835,63704
26603,63389
26022,62686
25550,62120
25261,61770
24871,61270
24871,61270
24396,60714
23810,60029
23568,59708
23140,59189
22533,58533
22376,58324
22291,58242
22228,58163
22115,58041
21918,57738
21944,57769
22274,58209
23341,59499
24528,60939
25022,61516
25335,61877
25687,62215
26076,62679
26591,63277
26529,63229
26329,62965
26387,63002
26424,63035
26456,63074
26607,63272
26573,63248
26381,62996
25789,62255
25165,61542
25296,61645
25918,62459
27165,63946
27644,64547
28299,65330
29259,65535
29977,65535
30076,65535
30344,65535
30292,65535
30040,65535
29498,65535
28835,65535
28205,65176
27965,64945
27838,64801
28075,65068
28438,65530
28862,65535
29065,65535
29223,65535
29562,65535
29506,65535
29271,65535
29023,65535
28847,65535
28892,65535
28919,65535
29110,65535
29045,65535
28797,65535
28803,65535
28867,65535
29094,65535
29094,65535
29201,65535
29321,65535
29356,65535
29380,65535
29601,65535
29813,65535
29863,65535
29654,65535
29644,65535
29582,65535
29597,65535
29531,65535
29396,65535
29456,65535
29470,65535
29113,65535
28595,65535
28293,65332
28101,65095
27746,64659
27622,64482
27553,64411
27557,64441
27658,64525
28092,65021
28462,65496
28821,65535
28416,65410
27779,64641
27375,64136
27250,63993
26693,63350
26147,62674
25648,62129
25157,61487
24664,61062
24572,60941
24655,60937
24667,60975
24472,60718
24142,60347
23771,59890
23474,59555
23202,59234
22970,58942
22764,58701
22511,58408
22048,57839
22048,57839
21435,57215
20906,56585
20725,56355
20769,56441
20696,56394
20657,56318
20759,56455
20681,56371
20615,56291
20782,56477
21519,57389
22551,58604
23037,59202
23211,59390
23252,59451
23283,59479
23251,59417
23190,59344
22905,59013
22573,58584
22240,58198
22045,57953
21913,57762
21854,57735
21820,57682
21844,57724
22011,57944
22238,58199
22384,58430
22498,58516
22594,58675
22788,58852
22808,58866
22606,58631
22302,58253
22151,58044
22136,58052
22145,58071
22293,58241
22470,58463
22646,58649
22099,57995
21694,57542
21074,56792
20137,55607
19289,54619
19004,54255
18703,53911
18078,53176
17520,52598
17209,52274
16731,51713
16203,51014
15582,50271
15113,49706
14825,49368
14600,49136
14337,48892
14337,48892
14127,48668
14096,48595
14234,48767
14261,48800
14285,48813
14386,48979
14383,48958
13955,48468
12991,47339
12412,46627
11768,45791
11283,45200
11647,45641
12738,46922
13887,48306
14453,48935
15187,49757
16721,51539
18506,53598
20704,56069
22072,57456
23394,58727
23179,58355
22531,57513
21661,56487
21391,56183
21491,56303
21068,55840
20432,55086
19965,54518
20010,54598
19681,54230
19006,53418
18729,53160
18548,52958
18719,53106
18500,52863
18258,52591
18228,52556
18271,52637
18453,52840
18869,53321
19142,53617
19236,53733
19455,54020
19691,54276
20027,54684
20116,54754
20116,54754
20091,54742
19977,54624
19716,54294
19649,54198
19645,54214
19453,53999
19188,53691
19089,53566
19043,53519
18911,53360
19077,53580
19371,53898
19566,54156
19642,54264
19571,54151
19642,54204
19647,54248
19558,54116
19503,54091
19398,53944
19048,53551
18817,53256
18784,53210
18710,53136
18773,53202
18951,53435
19183,53724
19376,53944
19751,54379
20110,54830
20250,54985
20234,54965
20121,54812
20068,54773
19945,54637
19742,54374
19377,53938
19201,53741
18908,53393
18680,53118
18565,52988
18647,53066
18758,53212
18802,53293
18944,53404
18864,53345
18872,53358
19104,53613
19239,53789
19283,53835
19337,53924
19298,53895
19297,53891
19308,53882
19522,54132
19681,54333
19631,54230
19714,54338
19950,54614
19836,54481
19836,54481
19964,54643
19885,54547
19760,54349
19789,54387
19715,54290
19675,54280
19697,54294
19697,54321
19643,54209
19982,54648
20121,54830
20083,54807
20101,54779
19959,54597
19969,54624
19826,54445
19757,54366
19931,54567
19980,54628
20049,54714
20428,55161
20698,55486
20979,55842
21175,56065
21389,56356
21351,56271
21180,56088
21182,56051
21245,56124
21377,56297
21521,56438
21578,56503
21753,56714
21664,56601
21548,56493
21504,56420
21572,56484
21631,56550
21792,56777
22029,57065
22437,57529
22485,57580
22459,57500
22459,57487
22894,58004
23215,58385
23215,58385
23221,58410
23250,58390
23531,58738
23582,58805
23695,58954
23763,59023
23662,58909
23236,58359
23175,58282
23361,58503
23231,58359
22987,58061
22690,57668
22464,57409
22428,57389
22403,57352
22433,57359
22520,57499
22691,57694
22767,57786
22726,57746
22603,57555
22523,57489
22590,57536
22744,57763
22698,57672
22809,57826
22926,57959
22980,58026
24145,59345
26428,61885
27161,62566
27672,63096
27568,62834
27578,62849
27036,62237
25704,60681
24304,59106
23193,57773
21393,55752
20305,54423
20546,54673
21356,55652
21743,56074
21387,55657
21505,55817
22060,56475
22197,56644
21998,56404
22354,56795
22172,56589
21980,56364
22098,56501
22048,56450
21647,56006
20923,55146
19511,53476
18633,52457
17891,51493
17950,51428
17950,51428
17266,50437
16960,49917
17108,50049
17074,50023
16895,49839
16364,49193
16403,49260
16874,49906
17789,51078
18463,52056
18758,52450
19299,53182
19224,53211
18838,52741
18193,52005
17502,51148
15957,49288
14080,47104
12755,45399
12288,44806
12613,45220
16028,49428
16087,49627
14024,47116
12282,45052
11450,44024
10528,42925
9418,41563
7777,39517
6223,37523
5060,36136
4858,35822
5752,36989
7033,38685
8827,40976
10987,43615
11445,44187
9822,42120
9609,41881
9582,41860
9781,42033
10037,42323
9944,42152
8294,40059
5370,36242
2525,32492
682,30172
33,29283
33,29283
65474,28999
65269,28630
337,29460
947,30224
1545,31032
1697,31252
1548,31065
952,30388
64627,28108
64139,27472
64139,27472
63723,26941
64160,27583
65068,28831
199,29717
65372,29225
64956,28645
65026,28716
65333,29038
437,29587
2596,32342
5695,38801
5652,40147
4766,39203
4450,38754
4768,39236
1207,34831
1426,35472
4120,39307
3192,38171
65430,33740
64580,32448
64560,32438
64448,32320
63728,31429
62317,29454
61799,28780
61314,28132
61458,28398
63143,30732
63187,30819
62941,30544
63271,31141
63884,32042
63300,31210
62549,30166
62198,29681
62073,29517
62163,29610
62251,29736
61915,29220
61774,29017
61912,29176
62089,29399
62276,29668
62266,29641
62106,29437
62170,29536
62459,29900
62459,29900
63147,30818
63929,31779
64129,31941
64601,32515
456,34216
1516,35328
1316,34890
1150,34666
1484,35154
1812,35618
1873,35787
1449,35287
1031,34847
825,34611
512,34245
349,34012
143,33800
65428,33482
65217,33203
64696,32566
63705,31262
63068,30414
62623,29847
62347,29461
62269,29352
62370,29669
62565,29940
62827,30267
63115,30630
63550,31212
64383,32259
65088,33152
249,34079
1266,35339
2786,37289
3504,38159
3643,38353
3993,38775
5005,40098
5847,41124
5911,41178
6058,41352
6066,41355
6222,41549
5985,41244
5848,41113
6057,41339
6932,42439
6932,42439
7982,43734
7897,43704
7652,43407
7514,43234
7767,43592
7202,42943
5920,41344
4521,39613
4227,39177
4332,39318
4332,39318
4392,39396
4439,39474
3782,38524
2792,37219
2002,36276
1683,35868
1567,35728
1808,36080
1762,36024
1241,35345
854,34852
664,34632
752,34737
1125,35225
1421,35625
1124,35263
1223,35393
1123,35273
1098,35287
1237,35472
850,35071
395,34497
189,34245
278,34422
346,34572
289,34507
65251,33689
64610,32908
64439,32808
64585,33026
64469,32840
64207,32503
64086,32344
64401,32734
64638,33000
64777,33176
65051,33573
65047,33546
64609,32982
64079,32268
63751,31874
63672,31741
63630,31730
63593,31689
63390,31419
63356,31363
63228,31224
63129,31085
63129,31085
63129,31125
62858,30773
62757,30678
62546,30417
62514,30396
62552,30458
62568,30468
62405,30285
62353,30175
62446,30297
62649,30551
63000,30970
63306,31378
63468,31564
63556,31640
63660,31789
63500,31538
63234,31184
63023,30852
63233,31024
63912,31797
64895,33008
136,34009
68,33929
64720,32751
64439,32348
64370,32230
65125,33050
1474,35188
3836,37713
3952,37674
2918,36342
1898,35003
1323,34162
1502,34219
1753,34403
1640,34113
1308,33523
1226,33318
1523,33375
2350,33753
3119,34516
4592,36351
5620,37685
7119,39605
9181,42380
10818,44584
12160,46324
13061,47580
13390,47956
14460,49256
15947,51133
17296,52814
18645,54367
19182,54995
19360,55192
19646,55555
20220,56224
20515,56602
20515,56602
20741,56884
21138,57378
22079,58427
23356,60038
23560,60317
23311,60010
22522,59070
21871,58293
21098,57352
19753,55688
19933,55897
19624,55612
18721,54628
18917,54959
19183,55245
19768,55957
19635,55797
19689,55878
19597,55779
19459,55508
19031,54979
18587,54382
18392,54127
18073,53731
17964,53564
17888,53496
17750,53314
17782,53379
17899,53493
17697,53268
17405,52952
17198,52721
16924,52354
16832,52256
16623,52010
16429,51780
16361,51621
16154,51345
15719,50842
15506,50575
15580,50667
15704,50794
15435,50485
15119,50060
15236,50231
15372,50390
15461,50485
15461,50485
15560,50619
15568,50624
15478,50534
15514,50557
15596,50688
15675,50742
15710,50792
15733,50824
15964,51119
16323,51580
16923,52306
17518,53068
17740,53345
17474,53002
17273,52765
17217,52710
17182,52684
16850,52280
16518,51885
16305,51557
15921,51120
15963,51159
16066,51258
16107,51326
15941,51120
15951,51150
15668,50760
15259,50251
14804,49703
14465,49255
14734,49584
15233,50199
15411,50428
15273,50259
15344,50368
15186,50165
15249,50240
15349,50391
15349,50398
15427,50481
15442,50533
15147,50126
15217,50192
15589,50695
15436,50494
15395,50426
15396,50427
15570,50619
15664,50780
15537,50585
15530,50559
15587,50638
15513,50545
15284,50305
14868,49764
15194,50173
15534,50600
15069,50040
13781,48536
13781,48536
12891,47398
12619,47109
11814,46019
10823,44824
10004,43767
9775,43481
9653,43291
9239,42794
9045,42545
8732,42171
8072,41232
7147,40134
6755,39649
6577,39368
6352,39102
6524,39302
6187,38889
5660,38197
5068,37469
4579,36835
3975,36158
3397,35286
2918,34674
2743,34468
2717,34419
2604,34328
2485,34167
2337,33981
2258,33890
2246,33878
2345,34006
2555,34292
2733,34506
3028,34879
3480,35472
3912,36000
4155,36309
4272,36454
4465,36743
4561,36833
4515,36779
4371,36606
4469,36719
4715,37018
4841,37166
4898,37246
5152,37586
5819,38419
5819,38419
6343,39071
6663,39470
7011,39910
7481,40501
8272,41446
8797,42219
9328,42885
10031,43742
10625,44456
11290,45207
11429,45385
11502,45463
11733,45773
12360,46513
12514,46838
12434,46710
12390,46661
12506,46841
12836,47219
13448,47973
14091,48777
14382,49143
14819,49671
15322,50285
15892,51059
16925,52416
16972,52513
17574,53249
18538,54384
19329,55375
20022,56171
21107,57467
21348,57805
21603,58117
21763,58323
20719,57104
19684,55873
18958,55021
18660,54700
18486,54445
17855,53700
16780,52464
17181,52927
17736,53608
17845,53723
17677,53552
17666,53514
17593,53439
17787,53654
18099,54061
18317,54373
18509,54613
18395,54468
18009,54006
18448,54529
19569,55904
19569,55904
20211,56691
22130,58957
22130,58957
22535,59410
22279,59161
21705,58438
21457,58131
21471,58140
21204,57820
21485,58176
21431,58114
21394,58066
21607,58418
22996,60056
24451,61718
23310,60353
24342,61499
26328,63753
26601,64068
27729,65329
28514,65535
29739,65535
30614,65535
31233,65535
32126,65535
32547,65535
32685,65535
32978,65535
32300,65535
30768,65535
29008,65535
27727,65535
26088,65354
23250,61965
20949,59389
21025,59414
21745,60216
21829,60277
21736,60194
21301,59661
20977,59289
20726,59008
20590,58831
20535,58766
20139,58268
20046,58155
20336,58521
20284,58469
20163,58322
20619,58898
20619,58898
21843,60346
22945,61611
22976,61669
22584,61219
22249,60832
22163,60748
22125,60733
21904,60494
21775,60345
21896,60487
21942,60564
21863,60445
21987,60571
22082,60708
21769,60359
21374,59883
21065,59530
20936,59398
20527,58919
20034,58362
19459,57682
18889,57117
18561,56685
18352,56438
17922,55923
18049,56098
18754,56920
19298,57529
20090,58418
21653,60218
21864,60525
21262,59785
20835,59284
21056,59550
21304,59846
21293,59828
21188,59715
21347,59884
21476,60057
21423,59953
21426,59946
21393,59894
21195,59690
21034,59523
21007,59474
20988,59484
21089,59566
21193,59709
21130,59634
20990,59437
20818,59282
20424,58804
20476,58851
20697,59102
20999,59438
21485,60009
21512,60081
21432,59956
21572,60115
21611,60145
21547,60072
21547,60072
21390,59887
21042,59509
20577,58962
20577,58949
20743,59139
20699,59096
20726,59119
20721,59116
20549,58899
20466,58812
20737,59121
20636,59027
20391,58752
20538,58908
20760,59136
20870,59283
20839,59277
20981,59419
21061,59522
21130,59580
21078,59543
20866,59274
20892,59317
20969,59391
20847,59250
20604,58931
20600,58958
20765,59169
20977,59401
21135,59615
21159,59605
21107,59554
21128,59587
21082,59507
21026,59431
21025,59477
21298,59789
21576,60110
21596,60181
21398,59929
21232,59764
21380,59913
21348,59873
21644,60234
22149,60787
22345,60990
21770,60435
21179,59838
21179,59838
20918,59526
20313,58822
18969,57302
16980,54912
16995,54987
17932,56058
18336,56510
18204,56341
18207,56348
18181,56381
18291,56522
18263,56485
18553,56839
19097,57540
19851,58434
20474,59184
20054,58697
19098,57516
19086,57530
19045,57475
18845,57205
19017,57415
19452,57916
19557,58069
19205,57618
19074,57470
18891,57260
18916,57268
18666,56987
18189,56443
18026,56260
18047,56281
18047,56257
18224,56483
18302,56585
18144,56380
18064,56275
18041,56255
18049,56268
17957,56155
17946,56126
17950,56172
18076,56288
18182,56423
18359,56614
18454,56735
18351,56613
18402,56684
18891,57249
19651,58153
20108,58703
19991,58554
19770,58290
19530,57992
19384,57784
19286,57698
19286,57698
19266,57673
19212,57614
19056,57409
18942,57266
19034,57378
19198,57546
19234,57584
19243,57619
19329,57716
19370,57785
19532,57985
19648,58098
19614,58072
19507,57933
19533,57962
19433,57820
19151,57504
18925,57219
18812,57081
18825,57089
18642,56852
18400,56599
18220,56389
18066,56222
17614,55686
17367,55355
17181,55151
17227,55191
17372,55362
17207,55175
17338,55337
17515,55532
17627,55654
17661,55672
17655,55685
17813,55878
17815,55859
17799,55841
17846,55912
17937,56001
18226,56330
18437,56589
18733,56930
18967,57170
19168,57433
19388,57713
19839,58205
20011,58413
19965,58352
19965,58352
19894,58249
19909,58256
20019,58395
20101,58486
20562,58982
20968,59472
21463,59972
21683,60261
21487,60022
21083,59571
20550,59002
20580,59006
20269,58631
20300,58667
20892,59305
20996,59450
20894,59362
20847,59276
20833,59257
20849,59270
20784,59169
20664,59072
20722,59125
20733,59119
20725,59118
20736,59139
20600,58948
20608,58975
20495,58817
19857,58084
19184,57292
18943,57021
19146,57255
19417,57521
19682,57824
19962,58081
19961,58046
20160,58275
20959,59170
21297,59518
21452,59642
21509,59731
21672,59909
21904,60143
22182,60480
22461,60785
22448,60776
22171,60460
22042,60319
21678,59919
21632,59808
21548,59722
21486,59691
21562,59774
21508,59717
21664,59894
21813,60051
21739,59963
21733,59983
21733,59983
21756,60006
21674,59895
21560,59766
21250,59430
21308,59443
22175,60480
22436,60791
22305,60588
22182,60452
22060,60317
21962,60205
21408,59634
20917,59030
20561,58640
20159,58142
19999,57955
19872,57810
19838,57797
19736,57676
19578,57469
19518,57383
19462,57350
19437,57315
19618,57490
19748,57671
19348,57209
18546,56257
17858,55459
17266,54733
16766,54113
16484,53798
16266,53424
15990,53143
15630,52725
15438,52502
15296,52305
15081,52079
14921,51868
14932,51890
14935,51891
15198,52232
15514,52601
16078,53302
16767,54156
16818,54199
16779,54146
16779,54146
16982,54393
17167,54610
17406,54887
17704,55198
17930,55449
18473,56109
19064,56794
19750,57524
20209,58076
20418,58341
20418,58341
20506,58546
21273,59570
21931,60341
22214,60733
21901,60431
21805,60314
21845,60381
21768,60321
22029,60533
22251,60725
22546,61072
22771,61291
23217,61766
23464,62078
23126,61691
22771,61345
22755,61299
22478,60979
22001,60443
21155,59509
20485,58759
20279,58501
20230,58464
20412,58653
20572,58859
20707,59026
20821,59155
20985,59327
21075,59428
20914,59252
20848,59195
20775,59108
20742,59051
20633,58968
20620,58932
20568,58864
20306,58535
19848,58019
19221,57292
18455,56471
18548,56603
18414,56415
18492,56428
19008,57041
19149,57229
19326,57422
18974,57022
18245,56157
17359,55073
17359,55073
17464,55172
17310,55026
16931,54569
17018,54646
17127,54811
16886,54502
15545,52808
15032,52263
14834,52059
14782,52009
14670,51873
14321,51438
14217,51333
13469,50458
12673,49460
12274,49042
12423,49113
12060,48709
11606,48119
11257,47646
10895,47215
10959,47285
11243,47623
11514,47966
11781,48281
12217,48789
12516,49176
12784,49541
12913,49695
13080,49875
13637,50579
14125,51210
14570,51714
14894,52119
15127,52409
15418,52750
15356,52649
15428,52731
15484,52795
15449,52758
15502,52814
15830,53180
15903,53212
15925,53240
15931,53243
15904,53240
15932,53235
16081,53436
16124,53443
16053,53386
15964,53286
15924,53230
15867,53173
15848,53116
15853,53143
15886,53151
16054,53363
16164,53481
16325,53695
16325,53695
16410,53896
16367,53845
16268,53729
16259,53686
16324,53765
16294,53736
16330,53785
16442,53909
16505,53960
16636,54158
16600,54106
16536,54019
16394,53854
16267,53692
16290,53716
16336,53778
16381,53821
16357,53788
16423,53878
16669,54195
16937,54477
17166,54789
17321,54939
17683,55366
17840,55561
18017,55769
18193,55981
17985,55766
17622,55322
17571,55260
17432,55105
17493,55143
17620,55296
17583,55235
17531,55192
17667,55351
17874,55592
17918,55650
17845,55585
17747,55452
17768,55457
17773,55487
17864,55600
17865,55586
17939,55660
17842,55581
17842,55581
17630,55316
17534,55175
17554,55198
17596,55272
17714,55414
17660,55341
17648,55354
17676,55361
17675,55363
17695,55396
17537,55172
17311,54940
17238,54829
17176,54765
17042,54587
17036,54601
16910,54426
16737,54232
16512,53981
16342,53740
16358,53753
16343,53794
16369,53762
16469,53894
16706,54176
17316,54923
17462,55069
17354,54973
17358,54962
17360,54980
17416,55044
17271,54872
17376,55038
17618,55301
17753,55451
17721,55450
17053,54733
16602,54190
16288,53854
16324,53899
16576,54183
16276,53805
16018,53531
16159,53684
16197,53705
16201,53692
15687,53083
14659,51780
13985,50922
13095,49787
13030,49713
13041,49667
13414,50130
14214,51146
14728,51798
15495,52699
16660,54063
17470,54956
17368,54877
16295,53664
15362,52500
15362,52500
15133,52240
15306,52439
16588,54010
16733,54143
16540,53923
16239,53570
16704,54140
18358,56098
19953,57946
20721,58954
18598,56454
17254,54938
14537,51620
15435,52700
15377,52678
13612,50555
13045,49907
13256,50148
13550,50484
14045,51118
14282,51397
14744,51983
14898,52212
14641,51913
14069,51186
13539,50580
13254,50248
12813,49729
12636,49546
12659,49574
12885,49876
12901,49858
12954,49968
13112,50151
13363,50471
13515,50634
13407,50497
13388,50454
13232,50267
13196,50228
13066,50096
13045,50075
13146,50249
13154,50264
13406,50590
13474,50679
13541,50785
13433,50630
13433,50630
13254,50377
13309,50450
13808,51052
14411,51821
14894,52377
15411,52938
16587,54285
18097,56051
19740,57898
21200,59598
20786,59114
20703,58970
20868,59177
20958,59246
21517,59824
21767,60105
21331,59619
21024,59268
20612,58769
20633,58817
20284,58445
19928,58024
19678,57753
19407,57442
18942,56894
18161,56042
17797,55607
17580,55351
17300,55028
17192,54907
17179,54888
17138,54825
16882,54536
16820,54464
17137,54851
17457,55262
17699,55583
18425,56479
19440,57683
19975,58357
20696,59197
21853,60576
22516,61320
22515,61324
22495,61312
22656,61513
23532,62477
26798,65535
29938,65535
23146,61953
19627,57933
16813,54667
15724,53324
15515,53126
15603,53283
14890,52430
14730,52281
14758,52314
14826,52381
14827,52414
14827,52414
15068,52696
15170,52798
15122,52747
15339,53024
15863,53629
16621,54519
16979,54985
17102,55075
17293,55336
17960,56087
18534,56752
18318,56527
18055,56197
17726,55826
17439,55470
17044,55048
16439,54328
15920,53751
14948,52615
14548,52167
13665,51115
13161,50493
12890,50138
12601,49822
12252,49244
11899,48939
11646,48639
11739,48690
11912,48954
11903,48945
12058,49095
12028,49087
12031,49082
11716,48720
11348,48312
11064,47963
11070,47973
11230,48145
11273,48203
11141,48089
11207,48144
11196,48155
11176,48147
11113,48030
10963,47889
10895,47794
11061,48021
11061,48021
11129,48100
11385,48399
11650,48753
11858,49020
12268,49516
12559,49920
12616,50022
12888,50343
13449,51002
13540,51139
13647,51269
13745,51361
13710,51289
13501,51061
13236,50767
12978,50448
12790,50203
12674,50087
12299,49585
11877,49082
11480,48632
11290,48406
10952,47994
10663,47662
10357,47338
9774,46611
8931,45587
8674,45312
8377,44995
7579,44000
7147,43465
7305,43656
7722,44211
8004,44588
7849,44418
7852,44427
7798,44393
7580,44139
7476,44008
7529,44069
7609,44154
7974,44597
8593,45351
8922,45753
9250,46129
9888,46856
10389,47502
10633,47753
11003,48174
11372,48597
12136,49394
13340,50906
14083,51759
14525,52222
14637,52342
14393,52025
14381,52030
14091,51712
13897,51462
13765,51363
13765,51363
12949,50503
12081,49512
11813,49295
11716,49240
11577,49089
11098,48510
10076,47350
9156,46288
8508,45481
8044,44864
7722,44448
7362,44007
6945,43502
6601,43046
6296,42669
5435,41641
4177,40143
3306,38869
2574,37954
1689,36829
559,35440
65184,34103
64218,32854
63203,31570
62112,30106
61320,28985
61037,28637
60769,28289
60680,28180
60699,28214
60719,28296
60663,28235
60724,28307
60954,28614
61223,28989
61679,29628
62156,30301
62483,30741
62952,31378
63274,31834
63256,31822
63344,31936
63674,32357
64213,32992
64457,33316
64832,33770
47,34742
47,34742
799,35799
1309,36452
1648,36864
1785,37010
2392,37749
3041,38557
3385,39011
2885,38376
2860,38319
3180,38686
3371,38964
3129,38613
2848,38222
2579,37877
2807,38167
3159,38628
3568,39154
4033,39774
4444,40444
4875,41011
5526,41798
6223,42719
6904,43597
7989,44970
9103,46295
10800,48359
8812,45917
8884,46048
8711,45871
8558,45737
8636,45863
8535,45756
8591,45839
9535,46965
10737,48398
10640,48252
10781,48451
10930,48637
11079,48857
11632,49534
11829,49751
12054,50008
12381,50477
12541,50700
12958,51188
13119,51384
13946,52305
15097,53561
15377,53861
15238,53651
15356,53770
15526,53942
15391,53837
15162,53564
15241,53677
15171,53610
15298,53750
15517,54010
15517,54010
15817,54391
16505,55206
16903,55708
17290,56173
18068,57043
18408,57395
17888,56785
17867,56818
17805,56754
17908,56875
18468,57512
18059,57078
16896,55859
15514,54342
15336,54009
14379,52984
12290,50688
11460,49579
10870,48942
9755,47700
8667,46439
10160,48141
10044,47953
8960,46799
8512,46264
9027,46913
9193,47197
7852,45646
7509,45164
8104,45975
7614,45429
6333,43980
5394,42887
4685,41995
4374,41587
4023,41069
2813,39586
1363,37750
625,36761
484,36625
684,36903
1254,37701
2397,39293
3287,40423
4138,41473
4616,42103
5012,42622
5199,42837
5199,42837
5298,42904
5453,43051
5803,43438
5450,42987
4577,41857
3897,40979
3170,40009
2833,39588
2322,38931
1439,37747
954,37063
916,37024
878,36936
1106,37218
1664,37975
2073,38562
2041,38476
1959,38380
