IR Value,Red Value
25972,45866
25977,45870
25970,45882
25970,45864
25959,45876
25948,45834
25941,45851
25953,45839
25975,45863
25976,45866
25936,45837
25914,45814
25907,45817
25909,45812
25927,45828
25942,45833
25943,45838
25915,45820
25926,45831
25897,45797
25901,45805
25894,45822
25901,45819
25874,45817
25871,45780
25879,45798
25893,45837
25901,45801
25859,45788
25786,45719
25747,45674
25789,45736
25852,45766
25861,45771
25807,45720
25798,45726
25781,45699
25820,45753
25844,45806
25828,45760
25815,45770
25805,45719
25805,45719
25821,45768
25826,45760
25832,45800
25807,45728
25784,45715
25764,45703
25807,45728
25850,45780
25820,45757
25828,45758
25789,45709
25798,45723
25812,45758
25810,45758
25813,45730
25825,45751
25799,45739
25841,45762
25846,45793
25851,45787
25873,45790
25861,45801
25860,45801
25870,45827
25893,45832
25903,45824
25870,45812
25901,45843
25930,45878
25947,45896
25977,45939
25975,45917
26028,45974
26032,45996
26051,45999
26060,46024
26081,46054
26150,46104
26142,46114
26178,46160
26167,46142
26176,46174
26164,46130
26202,46173
26246,46237
26301,46285
26259,46258
26265,46239
26284,46253
26284,46253
26326,46304
26354,46331
26340,46323
26327,46331
26331,46305
26381,46349
26361,46357
26385,46374
26400,46410
26410,46412
26459,46436
26459,46436
26449,46449
26495,46465
26497,46495
26513,46484
26514,46477
26528,46495
26554,46536
26535,46544
26551,46554
26564,46542
26591,46577
26632,46652
26644,46647
26619,46624
26605,46617
26633,46622
26659,46687
26676,46666
26683,46704
26677,46698
26682,46699
26661,46678
26677,46676
26697,46711
26699,46706
26689,46685
26647,46645
26656,46681
26644,46652
26633,46644
26613,46604
26607,46631
26620,46619
26634,46649
26615,46618
26623,46616
26596,46596
26620,46594
26619,46588
26596,46570
26578,46568
26581,46565
26586,46563
26588,46556
26569,46531
26580,46551
26583,46553
26555,46533
26553,46514
26553,46514
26571,46551
26597,46557
26576,46531
26545,46511
26484,46484
26484,46464
26478,46446
26488,46427
26464,46418
26420,46366
26415,46370
26426,46371
26419,46373
26366,46308
26356,46304
26343,46311
26361,46305
26348,46312
26332,46284
26356,46310
26350,46302
26342,46267
26302,46244
26330,46265
26301,46281
26306,46269
26282,46253
26283,46233
26296,46235
26319,46260
26305,46240
26296,46260
26256,46201
26282,46213
26265,46228
26276,46215
26268,46204
26236,46192
26236,46200
26231,46179
26213,46158
26184,46139
26169,46132
26196,46109
26173,46097
26148,46099
26148,46099
26118,46063
26060,45977
26068,45990
26007,45947
25963,45901
25932,45862
25945,45880
25985,45932
25997,45906
25966,45894
25920,45854
25918,45833
25918,45833
25952,45899
25943,45900
25926,45890
25873,45831
25875,45820
25901,45853
25905,45837
25898,45839
25887,45836
25912,45854
25936,45853
25938,45871
25987,45938
26009,45982
26032,46015
26065,46002
26050,46023
26122,46075
26148,46107
26160,46141
26149,46117
26208,46182
26248,46216
26265,46229
26283,46248
26282,46251
26306,46296
26304,46275
26328,46310
26334,46319
26351,46334
26347,46333
26397,46370
26418,46380
26421,46416
26401,46412
26418,46426
26433,46415
26442,46423
26467,46440
26475,46461
26470,46463
26473,46481
26461,46483
26487,46491
26483,46483
26512,46542
26512,46542
26527,46532
26524,46541
26514,46499
26519,46525
26556,46573
26577,46616
26574,46597
26559,46547
26573,46586
26608,46616
26615,46621
26621,46636
26616,46618
26673,46671
26710,46743
26725,46734
26740,46741
26741,46749
26756,46772
26768,46777
26756,46787
26773,46795
26783,46811
26791,46832
26767,46826
26772,46779
26776,46815
26759,46790
26769,46777
26735,46710
26669,46672
26616,46620
26580,46565
26579,46553
26570,46546
26547,46514
26517,46504
26485,46446
26500,46427
26455,46404
26460,46405
26409,46368
26404,46365
26424,46339
26404,46348
26375,46328
26381,46323
26380,46299
26361,46288
26364,46311
26327,46254
26339,46278
26322,46248
26328,46261
26308,46252
26290,46249
26326,46253
26306,46251
26292,46230
26294,46229
26290,46227
26285,46220
26266,46203
26265,46187
26248,46177
26238,46193
26256,46174
26217,46166
26225,46169
26216,46126
26191,46154
26199,46129
26184,46126
26151,46127
26157,46083
26151,46086
26133,46071
26129,46056
26122,46061
26122,46058
26122,46058
26123,46063
26101,46031
26032,45964
25985,45924
25964,45923
25983,45915
26020,45955
26005,45946
26005,45948
25979,45945
25990,45929
26000,45946
26036,45974
25999,45973
25980,45925
25959,45937
25982,45927
25991,45913
25965,45914
25968,45923
25978,45915
25964,45942
25966,45909
25973,45904
25963,45916
25987,45938
25978,45916
25957,45911
25956,45908
25960,45916
25974,45916
25947,45891
25953,45912
25948,45900
25964,45903
25934,45918
25933,45891
25937,45894
25930,45890
25963,45927
25919,45887
25920,45881
25931,45873
25914,45882
25918,45884
25891,45843
25897,45852
25891,45838
25896,45831
25896,45831
25900,45830
25879,45838
25896,45854
25904,45879
25879,45829
25873,45848
25852,45835
25871,45836
25886,45822
25872,45848
25849,45812
25840,45812
25863,45819
25852,45815
25842,45846
25857,45805
25848,45802
25838,45801
25800,45746
25772,45710
25766,45738
25788,45755
25831,45811
25828,45785
25802,45766
25781,45751
25823,45774
25846,45808
25855,45825
25836,45827
25823,45782
25864,45828
25846,45814
25851,45816
25837,45789
25839,45825
25855,45805
25904,45853
25898,45868
25921,45890
25963,45914
25991,45959
26018,45999
26024,46001
26057,46028
26058,46056
26087,46074
26104,46100
26144,46129
26193,46172
26228,46216
26252,46254
26256,46271
26294,46272
26334,46349
26314,46323
26321,46323
26340,46352
26345,46353
26345,46353
26378,46371
26382,46365
26404,46454
26403,46419
26402,46431
26419,46436
26435,46446
26427,46449
26403,46400
26439,46450
26472,46488
26501,46544
26478,46510
26483,46491
26489,46511
26512,46525
26536,46576
26547,46569
26550,46577
26560,46618
26542,46606
26563,46603
26568,46603
26579,46615
26589,46633
26616,46634
26648,46686
26645,46695
26671,46712
26680,46735
26684,46741
26696,46738
26690,46730
26701,46747
26692,46745
26714,46729
26695,46756
26695,46753
26692,46734
26688,46738
26713,46764
26706,46757
26697,46745
26655,46685
26631,46678
26629,46655
26629,46655
26645,46659
26607,46627
26598,46635
26535,46569
26527,46531
26534,46536
26506,46527
26504,46499
26469,46461
26489,46494
26489,46494
26455,46486
26455,46441
26471,46471
26442,46437
26440,46455
26411,46406
26417,46401
26391,46403
26391,46380
26401,46386
26400,46362
26389,46369
26393,46373
26392,46368
26372,46405
26391,46369
26369,46344
26366,46367
26341,46350
26359,46330
26349,46358
26344,46332
26343,46333
26322,46302
26290,46256
26247,46207
26235,46241
26233,46231
26246,46227
26208,46206
26202,46174
26176,46153
26146,46119
26128,46114
26123,46106
26073,46044
26030,46003
26025,45981
26002,45957
25975,45941
25954,45949
25940,45908
25936,45894
25910,45859
25914,45885
25898,45828
25896,45855
25891,45840
25871,45798
25881,45816
25881,45816
25851,45808
25840,45798
25824,45775
25819,45777
25807,45779
25808,45751
25826,45760
25802,45749
25827,45778
25796,45776
25820,45774
25800,45748
25786,45746
25796,45769
25793,45742
25804,45759
25777,45726
25771,45718
25803,45783
25882,45896
25882,45862
25832,45821
25836,45838
25851,45816
25860,45860
25854,45829
25854,45821
25859,45836
25871,45868
25839,45829
25773,45779
25731,45747
25770,45746
25811,45813
25838,45807
25811,45797
25796,45757
25768,45748
25830,45844
25856,45878
25878,45856
25851,45856
25827,45822
25861,45849
25871,45819
25862,45873
25868,45891
25915,45914
25958,45944
25981,45989
26046,46039
26063,46092
26094,46110
26118,46138
26134,46147
26162,46169
26160,46172
26173,46206
26185,46198
26213,46239
26199,46214
26199,46214
26221,46249
26234,46267
26241,46255
26245,46296
26236,46272
26264,46302
26275,46329
26295,46346
26302,46364
26342,46384
26391,46432
26395,46444
26389,46441
26410,46454
26427,46481
26381,46435
26397,46430
26412,46501
26469,46529
26479,46518
26454,46499
26461,46515
26462,46518
26483,46546
26497,46570
26508,46556
26497,46547
26514,46556
26528,46582
26536,46596
26566,46612
26540,46606
26550,46625
26567,46645
26588,46640
26589,46660
26598,46664
26624,46657
26602,46675
26626,46687
26605,46664
26651,46723
26642,46715
26626,46729
26637,46695
26662,46712
26658,46733
26658,46733
26686,46777
26679,46771
26680,46776
26651,46761
26655,46724
26682,46754
26681,46760
26703,46751
26674,46761
26676,46740
26697,46755
26654,46729
26645,46703
26593,46664
26593,46642
26588,46646
26553,46611
26537,46583
26525,46583
26509,46542
26496,46535
26438,46471
26428,46470
26387,46418
26396,46423
26368,46377
26355,46339
26312,46347
26331,46359
26315,46335
26324,46344
26316,46309
26275,46282
26218,46205
26228,46195
26174,46164
26188,46175
26158,46164
26160,46150
26092,46097
26103,46100
26137,46111
26099,46106
26077,46052
26069,46056
26070,46054
26100,46077
26069,46036
26078,46058
26057,46033
26074,46061
26044,46026
26045,46007
26057,46032
26060,46018
26047,46019
26021,46033
26047,46032
26047,46032
26023,46035
26027,46019
26008,45993
26015,45998
26005,46005
25991,45991
25987,45996
25994,45974
26024,46001
26002,45982
26007,45994
25985,45986
25996,45993
26003,45985
25976,45968
25968,45967
25973,45953
25963,45945
25953,45937
25930,45934
25947,45915
25922,45932
25921,45932
25928,45934
25905,45894
25870,45880
25826,45824
25871,45859
25887,45873
25884,45904
25853,45864
25844,45859
25882,45861
25863,45862
25889,45903
25872,45873
25859,45867
25837,45872
25843,45835
25853,45858
25833,45829
25834,45840
25815,45817
25829,45831
25840,45823
25813,45838
25813,45810
25826,45843
25826,45843
25811,45824
25812,45812
25807,45826
25803,45810
25820,45801
25819,45790
25821,45831
25891,45911
25890,45908
25882,45908
25873,45862
25893,45887
25887,45906
25906,45912
25881,45890
25914,45933
25911,45958
25924,45952
25912,45948
25923,45954
25961,45983
25947,45995
25959,45986
25989,46009
26004,46017
26026,46060
26014,46071
26036,46097
26092,46129
26088,46148
26115,46181
26127,46157
26162,46236
26182,46242
26195,46246
26195,46245
26188,46250
26197,46267
26252,46308
26302,46364
26292,46361
26311,46383
26293,46360
26308,46393
26354,46453
26379,46448
26369,46467
26390,46466
26388,46461
26384,46472
26401,46487
26399,46471
26425,46504
26430,46496
26447,46547
26454,46555
26486,46560
26513,46592
26515,46587
26515,46587
26529,46616
26515,46587
26532,46619
26537,46625
26558,46630
26569,46662
26583,46661
26610,46684
26605,46693
26600,46701
26586,46688
26590,46659
26620,46697
26642,46717
26644,46729
26620,46707
26630,46721
26621,46700
26642,46731
26643,46728
26643,46715
26627,46704
26614,46696
26637,46704
26613,46674
26580,46686
26556,46635
26559,46628
26552,46615
26547,46584
26528,46575
26522,46569
26488,46538
26467,46543
26447,46497
26413,46461
26431,46458
26407,46435
26394,46423
26376,46423
26389,46418
26382,46413
26394,46409
26369,46452
26379,46412
26386,46429
26386,46429
26393,46429
26394,46420
26410,46427
26391,46411
26372,46429
26372,46400
26365,46397
26334,46369
26294,46338
26315,46354
26317,46363
26295,46328
26263,46303
26258,46302
26242,46289
26246,46283
26236,46273
26246,46263
26234,46264
26195,46206
26188,46218
26192,46239
26186,46214
26177,46193
26138,46146
26139,46189
26131,46154
26136,46163
26083,46122
26094,46137
26104,46132
26081,46098
26051,46068
26048,46077
26040,46062
26034,46064
26029,46042
26026,46057
26019,46049
26021,46047
26022,46049
26026,46033
26007,46034
25996,46007
25996,46007
25979,45989
25969,46027
25969,46010
25965,45969
25979,45980
25974,45965
25950,45985
25938,45979
25948,45993
25936,45971
25939,45971
25924,45967
25927,45954
25947,45960
25930,45945
25920,45956
25920,45956
25932,45958
25916,45907
25869,45893
25831,45850
25825,45856
25849,45887
25890,45886
25873,45870
25851,45891
25858,45887
25878,45900
25894,45913
25883,45886
25871,45886
25878,45891
25885,45900
25874,45892
25882,45910
25859,45889
25882,45895
25914,45920
25905,45937
25941,45949
25945,45957
25986,46020
25983,46008
25989,46019
25975,46034
26029,46050
26044,46069
26027,46072
26021,46060
26074,46123
26105,46131
26116,46129
26123,46155
26145,46197
26192,46233
26201,46253
26218,46244
26248,46277
26250,46311
26300,46345
26299,46352
26317,46381
26344,46416
26350,46413
26371,46442
26377,46446
26394,46454
26419,46484
26416,46470
26416,46470
26395,46471
26392,46453
26460,46552
26484,46573
26444,46533
26454,46533
26489,46534
26483,46562
26488,46553
26483,46553
26505,46577
26511,46575
26517,46591
26533,46595
26537,46607
26556,46626
26552,46642
26575,46661
26615,46686
26625,46731
26637,46699
26653,46738
26641,46753
26671,46721
26663,46756
26696,46773
26675,46781
26680,46778
26690,46764
26695,46797
26702,46822
26692,46796
26649,46763
26597,46684
26590,46668
26565,46656
26577,46661
26521,46582
26463,46541
26433,46509
26450,46512
26406,46471
26366,46421
26324,46379
26344,46379
26344,46382
26304,46359
26328,46361
26318,46340
26323,46335
26297,46351
26277,46290
26250,46275
26242,46272
26246,46277
26216,46234
26223,46248
26218,46246
26220,46245
26206,46234
26226,46263
26190,46213
26190,46213
26184,46232
26173,46207
26186,46210
26176,46193
26165,46175
26171,46193
26162,46159
26129,46154
26081,46119
26059,46058
26041,46066
26047,46082
26054,46049
26011,46015
25964,45974
25945,45971
25917,45958
25914,45935
25929,45916
25905,45949
25875,45909
25864,45868
25856,45869
25875,45889
25850,45857
25817,45854
25787,45794
25812,45800
25815,45816
25829,45865
25793,45823
25817,45834
25806,45852
25807,45812
25811,45824
25779,45789
25776,45795
25777,45797
25770,45784
25749,45750
25743,45764
25751,45786
25768,45790
25731,45757
25745,45774
25748,45756
25751,45782
25727,45756
25727,45756
25715,45721
25717,45751
25729,45748
25732,45744
25705,45733
25692,45731
25695,45726
25698,45727
25695,45723
25670,45699
25670,45699
25694,45718
25690,45718
25692,45724
25670,45712
25663,45709
25650,45709
25650,45672
25615,45633
25560,45579
25594,45628
25620,45650
25626,45670
25584,45616
25594,45619
25567,45623
25652,45673
25696,45752
25688,45729
25658,45710
25647,45704
25674,45720
25688,45699
25674,45727
25649,45707
25650,45709
25663,45733
25681,45729
25678,45706
25673,45744
25690,45720
25715,45784
25707,45746
25711,45780
25675,45743
25717,45779
25740,45786
25760,45810
25757,45820
25804,45876
25807,45883
25840,45915
25843,45935
25868,45950
25873,45954
25908,45978
25931,46018
25931,46018
25909,45991
25938,46000
25969,46055
26014,46099
25994,46100
26013,46110
26043,46154
26101,46176
26101,46216
26087,46187
26119,46220
26167,46265
26176,46276
26129,46247
26145,46249
26194,46308
26240,46369
26236,46358
26224,46350
26241,46343
26258,46385
26286,46402
26301,46407
26298,46401
26305,46422
26313,46422
26328,46442
26298,46436
26334,46436
26333,46445
26365,46514
26377,46497
26415,46539
26409,46549
26439,46563
26457,46558
26445,46547
26447,46571
26453,46553
26469,46578
26462,46592
26460,46596
26468,46572
26469,46607
26496,46643
26514,46632
26537,46673
26501,46656
26482,46626
26482,46626
26505,46629
26520,46642
26505,46635
26516,46611
26489,46621
26521,46618
26509,46604
26477,46608
26450,46563
26442,46561
26442,46561
26438,46574
26431,46560
26416,46541
26401,46492
26360,46458
26367,46467
26369,46447
26346,46429
26313,46403
26299,46376
26314,46364
26298,46357
26254,46304
26235,46296
26215,46298
26248,46322
26251,46321
26208,46253
26143,46205
26111,46190
26131,46184
26107,46159
26075,46133
26047,46099
26031,46068
26017,46077
26023,46064
26025,46061
25991,46026
26017,46050
26001,46037
26007,46028
25997,46017
25986,46026
25973,46025
25972,46015
25945,45991
25934,45962
25922,45943
25937,45984
25940,45969
25923,45962
25911,45955
25897,45942
25893,45936
25886,45944
25888,45948
25863,45903
25863,45903
25866,45913
25857,45910
25836,45902
25800,45862
25790,45858
25806,45870
25816,45890
25870,45930
25881,45951
25869,45927
25869,45954
25869,45953
25829,45896
25838,45888
25849,45915
25861,45906
25860,45911
25835,45888
25829,45897
25760,45791
25730,45808
25704,45748
25760,45826
25740,45806
25692,45764
25677,45745
25664,45732
25709,45759
25701,45764
25696,45762
25668,45754
25695,45752
25680,45723
25657,45711
25628,45702
25652,45701
25635,45686
25634,45692
25655,45708
25643,45683
25663,45724
25651,45698
25635,45712
25622,45690
25637,45706
25630,45675
25630,45705
25601,45659
25428,45474
24288,44179
22648,42378
20815,40553
19580,39232
18586,38165
17912,37467
17307,36808
16897,36435
16623,36162
16453,35946
16453,35946
16350,35778
16212,35626
16020,35413
15926,35303
15923,35279
15939,35275
15954,35305
15945,35297
15999,35346
16126,35477
16365,35725
16804,36182
17547,36976
18743,38233
19798,39314
20818,40495
21449,41121
21575,41260
21656,41366
21809,41513
22090,41804
22251,41992
22416,42164
22571,42333
22661,42417
22555,42328
22432,42187
22338,42058
22252,41967
22141,41832
22145,41862
22142,41842
22121,41850
22141,41873
22180,41901
22228,41953
22264,41965
22298,42004
22322,42025
22515,42228
22632,42348
22711,42438
22700,42399
22712,42441
22731,42443
22772,42488
22772,42488
22824,42539
22773,42483
22761,42482
22766,42489
22781,42476
22806,42504
22822,42521
22842,42552
22797,42530
22797,42496
22806,42499
22788,42466
22737,42436
22713,42405
22698,42386
22674,42363
22650,42335
22630,42311
22614,42280
22552,42217
22575,42239
22570,42221
22565,42225
22536,42228
22573,42229
22597,42271
22598,42272
22613,42277
22632,42271
22639,42309
22658,42326
22628,42306
22640,42305
22632,42304
22641,42322
22622,42289
22612,42267
22578,42247
22553,42209
22555,42216
22584,42256
22552,42246
22511,42172
22484,42131
22448,42099
22461,42105
22456,42142
22429,42078
22387,42048
22354,42016
22374,42043
22368,42027
22331,41991
22329,41993
22318,41957
22266,41940
22252,41922
22270,41941
22281,41965
22263,41938
22238,41904
22249,41920
22249,41920
22254,41934
22238,41923
22231,41900
22225,41886
22248,41918
22258,41909
22246,41932
22227,41907
22239,41902
22232,41923
22233,41930
22257,41941
22243,41927
22239,41927
22248,41930
22260,41923
22261,41945
22231,41895
22242,41924
22233,41931
22244,41913
22223,41915
22219,41907
22220,41919
22203,41880
22201,41909
22201,41890
22204,41908
22193,41885
22180,41883
22166,41846
22131,41836
22153,41852
22164,41841
22107,41806
22055,41756
22090,41787
22108,41830
22115,41823
22123,41808
22129,41821
22168,41867
22182,41914
22237,41933
22217,41934
22213,41911
22255,41978
22285,41981
22290,41981
22290,41981
22310,42010
22344,42082
22353,42067
22387,42086
22421,42147
22467,42154
22481,42204
22492,42219
22540,42244
22562,42273
22548,42264
22542,42234
22548,42270
22551,42238
22559,42276
22594,42307
22609,42319
22631,42371
22667,42380
22666,42380
22699,42395
22741,42427
22773,42468
22795,42514
22808,42515
22771,42479
22781,42484
22750,42482
22782,42498
22824,42529
22855,42564
22865,42564
22838,42547
22832,42536
22837,42558
22869,42595
22900,42619
22882,42586
22880,42576
22861,42558
22888,42603
22899,42611
22913,42633
22933,42650
22984,42713
22986,42723
23026,42743
23016,42744
23026,42734
23054,42768
23086,42795
23098,42838
23062,42790
23080,42803
23066,42794
23078,42797
23049,42795
23092,42799
23092,42799
23110,42831
23134,42872
23144,42890
23087,42814
23044,42793
23001,42736
23008,42729
22982,42703
22966,42666
22919,42650
22918,42623
22927,42616
22903,42607
22931,42639
22959,42659
22915,42625
22906,42608
22891,42586
22866,42583
22855,42566
22874,42564
22843,42559
22819,42521
22815,42499
22797,42501
22803,42483
22769,42439
22728,42429
22729,42394
22716,42411
22711,42400
22685,42406
22664,42369
22703,42387
22706,42394
22680,42381
22672,42376
22668,42353
22665,42375
22650,42351
22645,42344
22644,42357
22635,42325
22625,42304
22565,42256
22533,42240
22538,42251
22538,42251
22541,42267
22537,42259
22520,42204
22467,42170
22465,42159
22461,42146
22457,42162
22407,42111
22365,42065
22346,42070
22372,42079
22369,42067
22343,42050
22313,42013
22337,42042
22363,42058
22345,42035
22324,42031
22320,42007
22341,42031
22320,42024
22321,42033
22323,42023
22330,42033
22299,42006
22294,41997
22299,41985
22286,41977
22272,42015
22302,41983
22305,42000
22294,41987
22308,42029
22287,41990
22299,42010
22312,42017
22289,42017
22301,42009
22300,42023
22289,42012
22301,42015
22295,41991
22272,42018
22268,41997
22292,41999
22277,41995
22290,42008
22285,42001
22287,41994
22252,41948
22206,41929
22219,41935
22232,41939
22279,42007
22245,41965
22243,41981
22242,41984
22271,41984
22308,42004
22330,42030
22335,42076
22335,42076
22339,42051
22367,42084
22366,42090
22388,42118
22404,42133
22421,42159
22480,42226
22519,42252
22570,42299
22601,42368
22666,42421
22673,42437
22698,42439
22702,42438
22730,42446
22731,42466
22746,42479
22725,42462
22745,42483
22757,42525
22778,42533
22774,42508
22807,42541
22851,42611
22840,42603
22868,42627
22904,42681
22938,42692
22939,42675
22918,42675
22945,42711
22948,42700
22959,42707
22960,42732
22972,42715
22975,42729
22942,42709
22966,42728
22984,42739
22995,42772
22987,42737
22976,42744
22994,42755
23012,42748
22994,42759
23022,42778
23057,42813
23072,42826
23072,42826
23113,42870
23113,42899
23146,42943
23180,42914
23174,42959
23186,42955
23222,42979
23236,43021
23249,43024
23270,43042
23261,43048
23290,43052
23296,43093
23269,43056
23239,43019
23184,42972
23184,42972
23135,42915
23084,42839
23086,42853
23061,42834
23013,42768
22952,42713
22957,42700
22936,42689
22917,42634
22900,42626
22880,42593
22879,42603
22873,42605
22871,42583
22889,42600
22855,42576
22867,42566
22840,42571
22824,42537
22813,42533
22812,42510
22804,42540
22766,42505
22772,42517
22761,42506
22769,42501
22740,42485
22748,42457
22729,42483
22717,42450
22728,42458
22728,42440
22701,42458
22692,42417
22678,42428
22670,42409
22651,42381
22624,42378
22636,42395
22625,42377
22580,42332
22540,42283
22517,42265
22504,42261
22517,42243
22498,42226
22469,42240
22460,42202
22460,42202
22440,42219
22420,42179
22434,42188
22412,42188
22411,42161
22414,42162
22399,42175
22416,42192
22425,42189
22390,42165
22402,42173
22389,42158
22372,42152
22375,42145
22365,42163
22363,42137
22380,42169
22374,42148
22381,42163
22362,42145
22356,42143
22325,42132
22349,42123
22365,42138
22346,42141
22343,42106
22360,42142
22373,42162
22391,42171
22345,42126
22342,42120
22335,42127
22352,42139
22361,42138
22358,42116
22374,42161
22370,42176
22370,42165
22363,42140
22343,42140
22327,42117
22313,42093
22305,42096
22324,42125
22365,42151
22374,42192
22335,42144
22330,42129
22330,42122
22359,42156
22360,42166
22365,42132
22354,42139
22360,42137
22347,42132
22332,42139
22296,42084
22293,42085
22306,42118
22325,42110
22325,42110
22343,42144
22312,42113
22332,42136
22361,42143
22360,42136
22380,42186
22419,42211
22418,42210
22413,42181
22432,42220
22450,42236
22500,42283
22518,42312
22545,42346
22551,42366
22588,42380
22606,42412
22612,42396
22648,42457
22657,42468
22707,42513
22683,42496
22695,42489
22730,42524
22731,42543
22737,42532
22775,42569
22779,42585
22738,42568
22745,42551
22792,42603
22839,42661
22861,42668
22845,42637
22848,42671
22849,42661
22883,42686
22865,42669
22892,42699
22888,42708
22929,42743
22927,42745
22927,42744
22973,42767
22966,42800
23030,42827
23030,42827
23057,42864
23076,42877
23088,42899
23105,42904
23139,42936
23108,42937
23104,42914
23132,42921
23152,42936
23145,42967
23136,42952
23183,42990
23190,42989
23174,43014
23164,42989
23173,42996
23236,43059
23271,43060
23239,43081
23035,42866
22157,41944
21442,41205
21068,40827
20874,40634
20827,40585
20856,40608
20970,40734
21096,40862
21320,41062
21558,41316
21828,41589
22004,41799
22164,41921
22330,42102
22460,42241
22571,42359
22584,42373
22592,42409
22644,42426
22702,42507
22752,42569
22758,42539
22738,42541
22740,42553
22728,42507
22741,42523
22710,42543
22721,42512
22697,42512
22699,42482
22691,42496
22674,42474
22657,42459
22638,42434
22626,42450
22571,42379
22538,42349
22252,42071
20318,40132
18939,38757
18939,38757
18277,38102
18114,37932
18128,37947
18168,37977
18380,38185
18834,38678
19432,39300
19959,39862
20446,40359
20909,40801
21295,41204
21608,41534
21821,41749
21935,41863
22039,41949
22154,42071
22215,42153
22264,42199
22290,42229
22298,42227
22317,42250
22320,42267
22369,42290
22445,42350
22481,42417
22546,42483
22576,42550
22610,42572
22599,42558
22595,42554
22597,42556
22575,42529
22590,42539
22551,42530
22578,42519
22545,42475
22539,42501
22516,42485
22503,42480
22511,42473
22515,42475
22524,42456
22489,42467
22483,42463
22476,42428
22431,42383
22401,42335
22432,42387
22432,42387
22439,42394
22454,42408
22431,42414
22454,42404
22451,42411
22448,42388
22481,42422
22461,42438
22438,42385
22429,42385
22417,42367
22423,42363
22406,42352
22405,42339
22403,42353
22375,42329
22405,42348
22400,42349
22422,42356
22426,42375
22421,42362
22430,42370
22415,42344
22397,42361
22398,42345
22395,42323
22407,42354
22419,42340
22409,42348
22398,42359
22448,42369
22454,42405
22457,42410
22476,42449
22495,42483
22536,42491
22520,42486
22566,42522
22623,42565
22638,42616
22669,42627
22708,42679
22789,42777
22812,42802
22850,42810
22905,42905
22971,42945
23025,42991
22996,42990
22930,42922
22949,42927
23029,42988
23138,43079
23204,43129
23246,43159
23289,43210
23312,43257
23350,43282
23350,43282
23427,43333
23451,43369
23486,43396
23452,43373
23477,43412
23485,43416
23480,43421
23485,43431
23544,43461
23579,43485
23604,43524
23631,43553
23695,43645
23726,43684
23744,43682
23754,43714
23767,43716
23781,43718
23798,43761
23811,43776
23850,43795
23864,43823
23876,43830
23928,43879
23981,43930
23998,43964
23977,43924
23985,43956
23981,43920
24042,43987
24073,44016
24080,44050
24071,44013
24075,44005
24070,44013
24094,44006
24111,44032
24127,44069
24150,44083
24183,44101
24177,44109
24176,44112
24131,44049
24118,44035
24079,43977
24051,43921
24026,43900
24026,43900
23999,43867
23967,43844
23940,43817
23872,43723
23846,43697
23811,43659
23787,43636
23758,43617
23738,43590
23707,43545
23673,43519
23693,43525
23673,43524
23624,43492
23597,43432
23606,43440
23610,43421
23608,43431
23564,43433
23570,43413
23586,43414
23552,43390
23539,43364
23540,43364
23529,43366
23500,43337
23491,43345
23488,43322
23501,43347
23494,43342
23499,43325
23479,43325
23466,43303
23448,43307
23469,43299
23466,43313
23430,43261
23461,43261
23437,43260
23445,43272
23423,43240
23436,43271
23422,43290
23430,43269
23416,43272
23360,43222
23334,43173
23323,43178
23352,43196
23373,43213
23342,43222
23284,43131
23261,43089
23226,43071
23217,43075
23234,43056
23194,43055
23169,43029
23144,42993
23144,42993
23134,42954
23027,42883
22625,42441
22018,41792
21413,41230
20874,40669
20406,40199
19941,39720
19414,39225
18838,38640
18418,38202
18105,37892
17879,37625
17687,37419
17571,37302
17428,37172
17337,37074
17270,37016
17262,37015
17265,36992
17256,36998
17262,36994
17238,36962
17247,36984
17194,36932
17168,36900
17145,36884
17151,36886
17119,36920
17105,36889
17073,36854
17016,36809
16965,36757
16884,36684
16865,36630
16835,36621
16785,36567
16698,36475
16526,36277
16407,36143
16403,36075
16321,35988
16309,35962
16246,35882
16171,35796
16094,35737
16102,35730
16119,35743
16119,35743
16104,35714
16093,35742
16125,35762
16125,35761
16125,35759
16130,35776
16174,35806
16240,35874
16273,35923
16342,35989
16332,35987
16353,36025
16394,36060
16420,36100
16421,36097
16448,36128
16469,36162
16482,36168
16503,36181
16517,36201
16571,36245
16567,36239
16623,36296
16638,36320
16668,36363
16675,36342
16691,36386
16689,36385
16699,36394
16688,36385
16722,36425
16733,36447
16741,36454
16761,36462
16769,36479
16789,36516
16797,36512
16820,36546
16806,36535
16802,36519
16810,36534
16789,36514
16776,36483
16760,36458
16719,36451
16701,36433
16679,36375
16699,36397
16682,36417
16693,36395
16696,36404
16696,36405
16691,36399
16669,36351
16662,36352
16637,36325
16651,36360
16651,36351
16598,36312
16597,36292
16583,36279
16583,36279
16559,36269
16545,36236
16543,36247
16507,36236
16528,36231
16512,36190
16526,36210
16507,36217
16513,36218
16525,36219
16513,36229
16516,36239
16547,36256
16538,36247
16513,36249
16500,36207
16521,36218
16512,36242
16521,36233
16478,36214
16519,36239
16532,36285
16626,36348
16754,36495
16806,36523
16816,36550
16816,36563
16838,36586
16854,36601
16835,36566
16812,36534
16798,36537
16806,36552
16777,36547
16767,36517
16758,36529
16751,36534
16761,36495
16721,36468
16717,36481
16664,36433
16643,36416
16614,36387
16599,36361
16585,36321
16550,36320
16534,36274
16547,36292
16547,36292
16517,36292
16466,36212
16408,36151
16373,36118
16362,36116
16400,36134
16386,36133
16360,36119
16378,36119
16376,36101
16355,36124
16378,36120
16365,36107
16368,36121
16365,36102
16365,36090
16352,36109
16366,36094
16379,36123
16385,36115
16369,36093
16392,36119
16382,36116
16407,36164
16414,36139
16421,36132
16428,36168
16424,36146
16408,36155
16445,36179
16419,36155
16472,36199
16469,36204
16473,36211
16448,36187
16461,36201
16487,36214
16485,36218
16494,36242
16508,36221
16510,36245
16497,36249
16507,36259
16507,36249
16535,36280
16554,36292
16579,36311
16577,36308
16568,36289
16570,36293
16575,36290
16562,36270
16581,36312
16580,36327
16621,36331
16611,36340
16611,36340
16609,36362
16634,36359
16634,36359
16655,36387
16638,36390
16650,36363
16649,36390
16663,36399
16690,36413
16689,36418
16684,36419
16667,36401
16691,36415
16723,36434
16711,36449
16749,36469
16754,36506
16727,36466
16748,36480
16731,36490
16767,36494
16737,36475
16740,36474
16772,36527
16740,36464
16722,36442
16704,36424
16689,36445
16698,36428
16704,36439
16673,36421
16657,36390
16626,36373
16635,36356
16631,36364
16600,36327
16588,36327
16586,36333
16611,36341
16610,36340
16601,36347
16637,36378
16636,36384
16659,36419
16675,36431
16695,36439
16683,36427
16673,36428
16679,36428
16677,36426
16670,36442
16670,36442
16681,36449
16716,36466
16709,36502
16722,36474
16732,36504
16721,36485
16687,36435
16698,36464
16680,36450
16680,36450
16711,36475
16733,36498
16755,36532
16765,36566
16785,36587
16757,36538
16751,36544
16744,36521
16754,36554
16747,36531
16786,36586
16815,36597
16816,36600
16795,36601
16752,36566
16744,36543
16737,36542
16752,36553
16739,36546
16742,36539
16713,36521
16725,36549
16720,36529
16709,36507
16702,36535
16683,36510
16709,36513
16708,36533
16747,36547
16724,36550
16751,36554
16743,36547
16685,36506
16657,36469
16633,36469
16612,36431
16607,36430
16611,36414
16603,36423
16621,36435
16623,36453
16622,36456
16607,36403
16586,36409
16556,36393
16583,36383
16582,36387
16570,36388
16579,36399
16579,36399
16591,36390
16571,36394
16563,36372
16555,36367
16562,36369
16551,36361
16558,36370
16563,36391
16571,36396
16619,36431
16630,36463
16651,36475
16706,36546
16661,36483
16654,36463
16627,36451
16650,36474
16640,36465
16692,36515
16747,36574
16814,36658
16870,36719
16861,36715
16871,36711
16900,36750
16956,36801
16960,36822
16995,36859
16990,36843
17039,36895
17106,36950
17075,36940
17029,36877
17049,36917
17123,36974
17186,37048
17196,37062
17257,37126
17354,37218
17474,37359
17623,37497
17765,37643
18005,37905
18231,38130
18554,38457
18612,38527
18638,38533
18638,38533
18773,38688
18869,38808
18994,38921
19123,39058
19156,39084
19178,39124
19225,39168
19269,39198
19249,39211
19249,39211
19253,39187
19265,39193
19252,39170
19226,39182
19235,39190
19296,39238
19349,39280
19328,39274
19341,39303
19318,39283
19311,39262
19264,39233
19277,39228
19324,39263
19340,39292
19301,39256
19273,39226
19264,39215
19276,39213
19280,39222
19280,39232
19255,39203
19233,39198
19216,39164
19221,39145
19181,39115
19139,39062
19138,39076
19093,39009
19065,38987
19013,38958
18981,38900
18935,38861
18901,38811
18867,38778
18833,38738
18778,38700
18776,38676
18727,38633
18681,38604
18655,38573
18640,38561
18588,38517
18564,38496
18598,38501
18596,38520
18577,38478
18478,38386
18427,38324
18427,38324
18396,38293
18395,38295
18373,38290
18318,38234
18286,38202
18269,38193
18226,38141
18228,38137
18200,38115
18205,38125
18188,38115
18154,38070
18157,38086
18172,38080
18164,38088
18149,38047
18123,38028
18112,38035
18124,38046
18114,38023
18082,38008
18083,38028
18057,38011
18062,37982
18054,37989
18043,37975
18049,37983
18003,37944
18014,37978
18012,37961
18012,37960
17994,37947
17961,37918
17965,37910
17999,37953
17998,37936
17981,37941
17944,37904
17932,37893
17928,37862
17918,37880
17894,37876
17906,37871
17878,37823
17800,37775
17794,37760
17813,37799
17850,37835
17832,37798
17787,37763
17797,37758
17788,37762
17801,37797
17784,37761
17787,37786
17791,37781
17764,37726
17739,37707
17707,37692
17707,37692
17742,37713
17719,37715
17703,37694
17705,37696
17744,37732
17737,37735
17720,37720
17749,37731
17726,37721
17705,37695
17670,37668
17675,37671
17690,37689
17677,37689
17699,37709
17700,37713
17715,37706
17758,37756
17787,37789
17796,37781
17804,37803
17795,37796
17814,37815
17825,37837
17868,37885
17838,37854
17846,37852
17818,37862
17860,37880
17893,37879
17884,37906
17897,37936
17891,37890
17860,37874
17869,37866
17870,37878
17923,37939
17915,37914
17895,37918
17874,37901
17894,37897
17919,37930
17914,37919
17908,37901
17883,37894
17918,37934
17918,37934
17928,37931
17926,37924
17881,37920
17907,37911
17918,37931
17935,37938
17938,37927
17967,37968
17968,37992
17997,37990
18014,38015
18006,37994
18031,38034
18026,38042
18055,38074
18047,38079
18057,38077
18084,38076
18093,38087
18076,38074
18085,38094
18081,38075
18106,38103
18085,38103
18071,38080
18053,38052
18030,38040
18019,38030
17981,37987
17958,37958
17918,37927
17893,37888
17844,37861
17831,37833
17831,37821
17818,37791
17789,37777
17769,37789
17800,37763
17799,37803
17775,37788
17772,37753
17764,37745
17772,37757
17786,37767
17753,37722
17746,37728
17706,37707
17718,37710
17724,37697
17728,37704
17728,37724
17712,37692
17740,37761
17723,37714
17719,37714
17714,37721
17717,37718
17710,37724
17719,37718
17719,37718
17722,37704
17699,37693
17710,37717
17704,37701
17688,37683
17671,37681
17645,37665
17632,37655
17634,37648
17609,37629
17640,37668
17610,37649
17619,37652
17631,37666
17604,37629
17595,37620
17588,37625
17582,37622
17576,37620
17554,37581
17551,37598
17533,37551
17518,37567
17538,37575
17530,37576
17526,37573
17505,37551
17511,37574
17514,37543
17522,37562
17501,37587
17495,37555
17495,37547
17496,37532
17516,37543
17514,37557
17504,37551
17493,37545
17503,37563
17500,37542
17506,37570
17485,37562
17506,37548
17528,37567
17515,37583
17520,37580
17526,37565
17526,37565
17531,37591
17495,37569
17500,37580
17513,37579
17517,37609
17527,37579
17523,37574
17533,37575
17547,37623
17550,37612
17555,37636
17570,37647
17661,37735
17689,37796
17662,37780
17651,37755
17667,37754
17689,37782
17697,37795
17671,37798
17665,37761
17662,37766
17640,37725
17637,37746
17626,37726
17651,37737
17640,37746
17648,37765
17599,37720
17601,37701
17616,37718
17642,37743
17646,37754
17617,37709
17594,37706
17595,37688
17587,37701
17575,37668
17584,37665
17556,37636
17539,37646
17536,37645
17562,37649
17576,37647
17568,37642
17551,37651
17523,37631
17546,37646
17553,37637
17547,37635
17544,37658
17546,37649
17551,37662
17582,37686
17611,37707
17602,37702
17586,37706
17586,37706
17597,37702
17634,37740
17638,37756
17624,37732
17632,37755
17658,37749
17683,37804
17669,37777
17677,37776
17696,37795
17713,37834
17703,37804
17692,37764
17674,37799
17694,37794
17692,37802
17727,37840
17711,37803
17719,37835
17718,37831
17742,37838
17743,37858
17764,37867
17767,37868
17763,37863
17769,37886
17764,37880
17771,37880
17779,37914
17804,37901
17839,37928
17835,37948
17872,37988
17907,38004
17931,38050
17920,38048
17954,38048
17965,38091
17973,38106
18012,38139
18018,38137
18038,38143
18077,38180
18077,38193
18104,38225
18109,38239
18130,38264
18138,38272
18138,38272
18138,38268
18125,38249
18138,38256
18175,38291
18171,38298
18155,38304
18118,38269
18109,38245
18129,38257
18147,38285
18132,38247
18122,38231
18080,38220
18074,38189
18039,38157
18022,38131
17997,38104
17992,38114
17997,38115
18007,38110
18014,38111
18016,38109
18023,38128
17996,38118
17979,38087
17977,38098
17974,38095
17943,38042
17925,38033
17935,38051
17940,38053
17921,38033
17920,38029
17934,38046
17943,38061
17946,38045
17908,38015
17912,38031
17918,38036
17923,38035
17884,38010
17886,38020
17876,38005
17880,38001
17891,37993
17849,37987
17864,37989
17861,37978
17842,37970
17834,37953
17806,37938
17774,37907
17761,37890
17770,37908
17779,37908
17785,37923
17775,37912
17774,37884
17769,37883
17769,37883
17771,37896
17793,37910
17798,37899
17790,37920
17770,37870
17762,37910
17745,37868
17733,37866
17972,38131
17958,38098
17960,38125
17981,38107
17957,38120
17947,38067
17944,38099
17945,38094
17940,38093
17944,38066
17926,38038
17927,38085
17906,38056
17924,38051
17922,38065
17920,38057
17929,38077
17923,38070
17933,38087
17922,38067
17927,38068
17921,38085
17917,38057
17925,38065
17931,38057
17916,38078
17923,38067
17895,38060
17887,38049
17882,38046
17911,38059
17895,38071
17894,38049
17900,38060
17897,38068
17884,38050
17895,38038
17886,38073
17891,38043
17891,38043
17896,38048
17875,38036
17907,38062
17893,38056
17889,38061
17866,38039
17878,38036
17889,38059
17895,38069
17887,38029
17842,38008
17812,37978
17822,37954
17799,37968
17834,37971
17835,37990
17798,37956
17809,37959
17814,37970
17836,38029
17819,37994
17838,37998
17842,37978
17818,37989
17789,37965
17770,37915
17765,37918
17792,37935
17772,37920
17778,37943
17748,37927
17745,37917
17755,37905
17715,37899
17666,37805
17635,37793
17623,37783
17606,37781
17589,37735
17528,37718
17500,37683
17487,37665
17481,37677
17513,37695
17498,37642
17491,37673
17450,37638
17444,37639
17444,37639
17413,37611
17415,37614
17415,37593
17407,37582
17410,37584
17355,37528
17341,37527
17363,37521
17392,37561
17370,37557
17346,37522
17319,37536
17345,37525
17363,37572
17363,37572
17365,37565
17354,37508
17343,37542
17301,37511
17290,37478
17288,37479
17296,37490
17313,37501
17301,37496
17298,37490
17293,37504
17341,37517
17331,37531
17336,37501
17315,37493
17318,37504
17297,37479
17304,37489
17298,37493
17302,37506
17304,37506
17301,37491
17315,37490
17317,37494
17320,37504
17297,37483
17305,37506
17295,37480
17327,37523
17313,37518
17308,37512
17313,37538
17368,37554
17400,37592
17389,37604
17417,37595
17377,37553
17374,37587
17396,37603
17411,37616
17428,37628
17440,37638
17457,37662
17476,37660
17476,37660
17452,37666
17436,37616
17430,37608
17445,37639
17495,37704
17485,37709
17491,37689
17512,37684
17516,37701
17553,37749
17550,37712
17527,37718
17530,37721
17566,37766
17566,37751
17535,37741
17554,37757
17570,37755
17603,37799
17621,37825
17655,37851
17689,37901
17704,37906
17716,37920
17739,37953
17758,37965
17775,37974
17760,37978
17775,37989
17774,37972
17828,38050
17835,38079
17875,38100
17904,38130
17910,38123
17909,38134
17906,38133
17930,38168
17947,38174
17962,38206
17974,38225
17996,38218
17995,38237
18000,38214
17996,38240
18000,38214
17992,38240
17998,38238
17998,38238
17985,38230
17980,38207
17932,38168
17925,38180
17908,38160
17879,38108
17808,38021
17810,38021
17793,38005
17798,38015
17798,38015
17774,37985
17730,37956
17669,37879
17672,37888
17661,37866
17660,37855
17613,37809
17609,37816
17594,37817
17596,37791
17606,37777
17545,37739
17550,37730
17541,37747
17551,37748
17553,37743
17542,37742
17529,37731
17537,37739
17526,37737
17533,37720
17521,37725
17504,37708
17504,37708
17519,37724
17513,37719
17482,37709
17494,37698
17518,37724
17501,37720
17491,37721
17484,37671
17515,37709
17488,37691
17493,37681
17490,37686
17480,37688
17503,37720
17480,37675
17481,37697
17459,37669
17465,37696
17466,37692
17457,37671
17439,37677
17436,37662
17430,37655
17431,37658
17431,37658
17436,37662
17411,37646
17418,37626
17414,37660
17401,37623
17430,37659
17410,37679
17425,37676
17455,37706
17493,37751
17454,37728
17445,37698
17459,37701
17461,37718
17482,37761
17454,37739
17458,37724
17468,37727
17474,37712
17455,37741
17439,37706
17434,37695
17432,37694
17423,37695
17459,37710
17433,37690
17457,37707
17442,37706
17457,37708
17432,37716
17422,37691
17429,37693
17421,37681
17460,37684
17432,37689
17435,37698
17413,37686
17443,37701
17447,37701
17431,37714
17428,37687
17443,37708
17493,37734
17473,37744
17479,37731
17466,37722
17466,37722
17509,37776
17491,37777
17513,37749
17511,37799
17534,37778
17552,37813
17554,37819
17587,37860
17598,37879
17634,37901
17634,37901
17619,37887
17653,37904
17653,37904
17665,37927
17670,37962
17698,37971
17728,37990
17730,37996
17752,38018
17745,38045
17736,38036
17720,37968
17715,37982
17794,38068
17826,38119
17815,38118
17821,38132
17868,38133
17865,38144
17891,38182
17884,38195
17904,38204
17893,38217
17889,38182
17909,38196
17914,38199
17900,38207
17907,38186
17933,38230
17952,38244
17965,38259
17944,38251
17970,38268
17978,38269
17987,38264
17960,38260
17999,38297
18013,38293
17985,38287
17990,38294
17995,38300
18018,38286
18015,38292
17985,38298
18003,38290
17991,38279
17999,38269
17961,38251
17957,38233
17957,38233
17937,38225
17945,38226
17940,38245
17953,38243
17961,38253
17931,38203
17890,38200
17878,38146
17863,38141
17858,38160
17833,38117
17815,38100
17771,38063
17781,38049
17757,38034
17747,38036
17719,38013
17731,38000
17736,38004
17731,37998
17735,38009
17707,37994
17704,37981
17677,37975
17680,37965
17683,37980
17655,37925
17670,37943
17664,37954
17675,37955
17642,37932
17629,37909
17656,37934
17637,37939
17655,37949
17608,37891
17601,37892
17606,37909
17614,37895
17588,37894
17544,37846
17548,37835
17543,37854
17548,37845
17555,37818
17556,37846
17536,37834
17576,37870
17596,37878
17551,37869
17572,37889
17552,37841
17558,37852
17529,37850
17566,37863
17560,37869
17555,37886
17553,37851
17534,37843
17534,37843
17542,37837
17511,37812
17525,37839
17525,37825
17525,37855
17506,37819
17493,37809
17521,37857
17577,37917
17541,37877
17529,37851
17490,37842
17508,37859
17552,37879
17564,37891
17609,37943
17587,37961
17608,37961
17640,37977
17665,37986
17647,37971
17633,37961
17600,37945
17654,38012
17666,38060
17675,38021
17667,38019
17677,38028
17668,38015
17658,38019
17659,38025
17668,38018
17647,38002
17625,37981
17622,37985
17632,38002
17640,38019
17638,38007
17620,37980
17630,37982
17636,37982
17641,37996
17622,37977
17631,37981
17611,37937
17592,37969
17592,37969
17594,37936
17597,37925
17597,37925
17573,37926
17556,37932
17594,37935
17574,37943
17568,37915
17557,37930
17561,37913
17581,37911
17554,37920
17557,37893
17562,37895
17547,37889
17556,37907
17533,37893
17558,37922
17557,37939
17574,37915
17579,37922
17567,37919
17566,37917
17553,37894
17547,37908
17540,37889
17555,37911
17569,37941
17577,37941
17581,37945
17602,37942
17611,37948
17641,37995
17674,38013
17670,38036
17651,38005
17674,38035
17658,38002
17689,38048
17687,38047
17678,38010
17724,38037
17698,38044
17690,38047
17656,37988
17643,37983
17597,37970
17560,37910
17547,37870
17529,37886
17519,37862
17517,37861
17487,37847
17508,37849
17490,37836
17492,37839
17498,37838
17524,37844
17524,37844
17538,37864
17524,37864
17535,37853
17531,37860
17538,37853
17512,37848
17514,37864
17539,37862
17591,37921
17579,37925
17571,37905
17569,37906
17566,37919
17582,37914
17553,37896
17533,37878
17506,37838
17454,37786
17448,37750
17412,37724
17394,37725
17401,37702
17360,37669
17383,37668
17369,37699
17371,37672
17381,37670
17359,37663
17368,37682
17352,37663
17329,37639
17317,37624
17300,37593
17313,37623
17289,37597
17295,37589
17290,37608
17301,37594
17289,37619
17290,37580
17277,37593
17275,37605
17265,37561
17273,37587
17271,37567
17267,37587
17248,37556
17254,37568
17254,37568
17243,37558
17257,37560
17246,37570
17239,37561
17231,37557
17187,37509
17163,37489
17125,37473
17169,37489
17185,37528
17179,37509
17194,37510
17180,37511
17193,37540
17191,37539
17216,37545
17206,37543
17220,37546
17264,37588
17284,37653
17306,37656
17334,37672
17304,37645
17315,37667
17314,37652
17326,37680
17318,37683
17333,37687
17357,37713
17385,37729
17381,37730
17440,37785
17454,37807
17465,37827
17457,37831
17451,37790
17448,37828
17472,37803
17461,37813
17451,37822
17402,37750
17387,37757
17365,37748
17371,37732
17369,37719
17360,37726
17440,37795
17425,37775
17425,37814
17409,37774
17406,37754
17398,37765
17400,37767
17379,37768
17368,37739
17386,37755
17350,37746
17378,37754
17378,37754
17380,37742
17387,37770
17376,37735
17364,37744
17336,37715
17347,37706
17295,37698
17314,37684
17320,37717
17332,37709
17334,37714
17335,37697
17342,37725
17326,37683
17329,37708
17329,37720
17321,37710
17340,37712
17318,37706
17319,37686
17318,37688
17295,37667
17289,37661
17302,37654
17300,37665
17300,37671
17315,37681
17310,37686
17325,37678
17349,37717
17347,37693
17339,37706
17313,37696
17318,37686
17292,37678
17317,37689
17309,37682
17319,37695
17315,37692
17326,37705
17339,37705
17383,37746
17378,37722
17363,37741
17384,37748
17385,37759
17385,37759
17412,37782
17405,37757
17440,37807
17428,37788
17442,37829
17443,37816
17436,37811
17453,37829
17451,37841
17446,37821
17433,37806
17412,37792
17477,37840
17492,37892
17516,37892
17495,37892
17522,37902
17540,37927
17533,37900
17570,37935
17566,37925
17571,37957
17571,37929
17554,37900
17578,37962
17549,37922
17546,37935
17565,37927
17589,37981
17590,37949
17611,38015
17619,38027
17635,38002
17624,38011
17626,38028
17639,38024
17641,38018
17630,38036
17638,38011
17636,38045
17655,38034
17619,38034
17663,38050
17713,38102
17747,38134
17753,38145
17681,38078
17693,38084
17716,38055
17699,38095
17689,38061
17652,38031
17649,38029
17640,38004
17604,37981
17559,37927
17541,37911
17539,37885
17566,37910
17520,37886
17539,37893
17539,37893
17528,37864
17537,37886
17508,37857
17495,37849
17454,37804
17454,37785
17457,37800
17450,37782
17421,37768
17416,37756
17425,37766
17435,37791
17427,37763
17424,37754
17438,37773
17437,37786
17419,37764
17423,37770
17414,37762
17410,37756
17418,37751
17401,37735
17418,37767
17400,37739
17385,37724
17381,37715
17387,37738
17361,37711
17319,37657
17273,37620
17290,37641
17313,37687
17313,37662
17287,37642
17268,37623
17303,37639
17310,37633
17295,37659
17252,37620
17242,37597
17239,37597
17228,37604
17206,37587
17195,37538
17193,37537
17186,37560
17217,37559
17218,37544
17218,37544
17240,37605
17221,37600
17235,37608
17222,37595
17218,37580
17204,37571
17200,37574
17210,37612
17217,37582
17189,37585
17177,37575
17191,37597
17203,37587
17184,37563
17174,37564
17179,37582
17174,37572
17181,37565
17174,37563
17173,37574
17163,37568
17160,37547
17152,37558
17153,37556
17153,37551
17147,37530
17139,37537
17134,37536
17134,37531
17132,37537
17125,37526
17144,37552
17125,37531
17136,37532
17145,37551
17138,37551
17171,37560
17217,37634
17300,37703
17321,37724
17272,37718
17243,37655
17258,37667
17259,37670
17279,37696
17266,37685
17284,37690
17256,37687
17278,37685
17292,37722
17284,37702
17283,37696
17258,37663
17268,37676
17264,37658
17242,37661
17242,37661
17214,37648
17228,37646
17216,37638
17200,37614
17234,37628
17227,37656
17224,37652
17230,37621
17240,37645
17242,37644
17202,37619
17211,37609
17219,37634
17217,37620
17214,37597
17234,37651
17230,37637
17231,37645
17231,37655
17250,37658
17279,37664
17257,37651
17261,37679
17259,37668
17258,37684
17261,37704
17258,37673
17271,37713
17295,37700
17303,37717
17302,37725
17320,37734
17311,37728
17332,37762
17329,37749
17329,37771
17340,37745
17347,37744
17314,37751
17341,37752
17382,37801
17424,37850
17419,37864
17402,37843
17423,37850
17442,37870
17450,37887
17472,37898
17472,37898
17480,37899
17466,37900
17458,37887
17494,37919
17491,37925
17490,37948
17498,37946
17554,37977
17604,38041
17604,38048
17641,38104
17672,38115
17694,38155
17668,38121
17656,38128
17699,38173
17711,38172
17703,38164
17707,38155
17714,38148
17710,38167
17687,38140
17696,38159
17698,38149
17693,38147
17668,38128
17662,38140
17673,38127
17618,38070
17564,38001
17577,37992
17575,37994
17571,38007
17519,37945
17502,37930
17490,37931
17513,37930
17508,37930
17463,37899
17466,37877
17461,37884
17468,37885
17444,37878
17417,37834
17428,37821
17414,37826
17425,37849
17420,37814
17431,37843
17417,37868
17439,37859
17413,37865
17429,37845
17432,37852
17424,37847
17420,37853
17438,37850
17388,37803
17400,37837
17400,37837
17394,37826
17388,37808
17365,37790
17381,37808
17386,37787
17381,37824
17369,37814
17355,37792
17314,37750
17296,37733
17265,37721
17289,37733
17314,37757
17298,37732
17310,37739
17285,37718
17306,37739
17295,37724
17291,37712
17270,37724
17262,37670
17251,37680
17227,37653
17248,37662
17236,37645
17224,37657
17191,37622
17236,37671
17204,37657
17219,37661
17208,37637
17195,37619
17201,37620
17196,37616
17212,37631
17191,37614
17198,37651
17198,37645
17215,37650
17233,37663
17215,37666
17227,37660
17235,37685
17224,37644
17230,37670
17221,37630
17221,37630
17220,37672
17203,37653
17209,37663
17195,37636
17209,37627
17183,37640
17180,37626
17176,37622
17192,37618
17192,37618
17193,37639
17276,37720
17276,37720
17462,37926
17830,38299
18277,38760
18638,39161
19021,39568
19342,39901
19593,40182
19859,40498
20059,40740
20260,40960
20112,40802
19774,40494
19605,40355
19601,40343
19544,40302
19435,40184
19259,40019
19066,39821
18976,39751
18923,39661
18854,39631
18677,39449
18551,39310
18395,39156
18240,38997
18119,38876
17985,38736
17902,38638
17830,38571
17788,38507
17753,38479
17704,38422
17677,38410
17642,38384
17555,38292
17537,38231
17512,38222
17524,38211
17470,38173
17464,38187
17471,38175
17461,38157
17439,38149
17455,38167
17496,38180
17500,38177
17500,38177
17492,38169
17467,38158
17484,38188
17513,38183
17496,38188
17509,38184
17536,38226
17547,38235
17562,38217
17581,38253
17561,38233
17575,38235
17598,38256
17569,38240
17555,38216
17563,38223
17629,38331
17643,38318
17632,38327
17625,38308
17622,38321
17641,38342
17677,38353
17701,38351
17666,38343
17683,38346
17682,38349
17690,38378
17677,38372
17706,38385
17719,38385
17742,38423
17774,38434
17777,38457
17771,38439
17801,38447
17788,38429
17788,38458
17759,38436
17771,38444
17773,38453
17787,38480
17770,38449
17817,38481
17865,38524
17855,38526
17855,38526
17861,38543
17862,38518
17871,38550
17853,38528
17837,38538
17860,38544
17863,38544
17865,38551
17886,38562
17886,38562
17869,38541
17858,38560
17847,38522
17835,38515
17799,38485
17807,38487
17765,38421
17717,38388
17672,38344
17645,38317
17597,38260
17565,38216
17552,38219
17528,38185
17527,38157
17489,38163
17500,38154
17509,38141
17531,38166
17502,38156
17453,38090
17440,38077
17448,38058
17454,38103
17401,38038
17366,38019
17341,37979
17374,38009
17337,38006
17318,37977
17319,37977
17329,37950
17328,37978
17317,37947
17311,37956
17308,37947
17304,37933
17295,37935
17273,37956
17275,37936
17275,37933
17293,37945
17261,37907
17256,37922
17252,37917
17266,37938
17266,37938
17264,37909
17258,37908
17266,37911
17240,37912
17267,37906
17267,37909
17259,37926
17256,37930
17277,37926
17256,37903
17240,37900
17204,37885
17221,37884
17236,37889
17201,37859
17187,37843
17162,37841
17157,37841
17130,37850
17134,37814
17112,37819
17112,37780
17100,37804
17100,37779
17076,37759
17082,37776
17066,37751
17089,37777
17068,37776
17072,37770
17072,37779
17080,37788
17091,37782
17073,37764
17051,37754
17032,37742
17031,37725
17017,37727
17007,37709
16982,37654
16977,37682
16966,37664
16964,37674
16944,37641
16953,37656
16949,37649
16943,37644
16948,37645
16941,37633
16926,37622
16906,37588
16895,37618
16905,37620
16890,37595
16896,37583
16910,37588
16910,37603
16932,37603
16904,37599
16904,37599
16919,37611
16913,37595
16910,37610
16888,37576
16884,37589
16883,37610
16887,37597
16893,37594
16894,37572
16880,37572
16872,37588
16894,37595
16864,37568
16871,37592
16861,37574
16889,37575
16867,37595
16871,37561
16884,37598
16887,37567
16891,37596
16866,37549
16875,37570
16872,37555
16877,37578
16848,37554
16842,37563
16834,37543
16827,37528
16836,37529
16826,37531
16805,37527
16779,37467
16787,37481
16782,37503
16808,37520
16812,37512
16821,37524
16799,37509
16837,37533
16858,37547
16847,37558
16867,37571
16857,37556
16856,37569
16839,37545
16843,37555
16836,37555
16836,37555
16833,37550
16856,37535
16857,37559
16893,37590
16874,37580
16868,37586
16882,37570
16878,37579
16872,37567
16874,37570
16860,37563
16873,37578
16885,37588
16895,37557
16868,37564
16875,37576
16894,37588
16893,37595
16891,37596
16924,37631
16913,37616
16911,37595
16934,37609
16924,37604
16922,37628
16903,37613
16913,37621
16952,37650
16943,37642
16938,37630
16933,37628
16936,37624
16941,37620
16955,37665
16941,37661
16957,37640
16957,37654
16965,37658
16972,37672
16988,37693
16966,37669
16959,37683
16959,37661
16975,37680
16960,37649
16962,37656
16968,37671
16992,37706
16981,37708
17000,37700
17019,37712
17002,37711
16993,37709
16982,37689
16985,37679
16974,37667
16975,37681
16948,37632
16946,37626
16915,37625
16915,37625
16920,37625
16911,37630
16922,37603
16900,37604
16887,37596
16884,37574
16914,37580
16913,37589
16903,37589
16843,37534
16847,37542
16831,37536
16835,37515
16840,37519
16822,37512
16817,37509
16795,37490
16799,37496
16795,37487
16787,37487
16746,37450
16753,37436
16757,37464
16750,37467
16749,37425
16764,37447
16752,37448
16772,37454
16749,37446
16724,37431
16736,37444
16722,37458
16719,37424
16717,37423
16723,37412
16726,37412
16708,37422
16715,37430
16718,37427
16721,37431
16709,37426
16716,37415
16703,37433
16706,37411
16710,37417
16691,37389
16715,37420
16715,37418
16715,37418
16720,37420
16702,37377
16713,37412
16683,37399
16702,37405
16690,37421
16692,37399
16678,37405
16717,37408
16694,37397
16698,37416
16654,37361
16627,37328
16633,37338
16642,37338
16650,37383
16623,37339
16636,37375
16624,37356
16646,37363
16662,37380
16662,37381
16643,37376
16635,37365
16620,37361
16623,37345
16623,37330
16596,37324
16617,37341
16607,37323
16604,37343
16612,37341
16612,37337
16607,37328
16601,37322
16600,37331
16597,37315
16578,37311
16583,37295
16574,37306
16560,37272
16575,37288
16581,37292
16593,37318
16582,37304
16581,37310
16586,37282
16598,37309
16583,37308
16585,37294
16592,37325
16618,37340
16624,37352
16638,37340
16644,37337
16620,37357
16648,37366
16645,37382
16645,37382
16636,37339
16622,37339
16620,37337
16662,37373
16663,37376
16664,37382
16657,37362
16662,37366
16672,37398
16680,37391
16666,37381
16659,37393
16655,37379
16656,37372
16658,37369
16648,37351
16673,37357
16664,37386
16677,37391
16678,37403
16691,37419
16766,37456
16755,37478
16745,37442
16735,37446
16759,37465
16775,37474
16784,37497
16780,37478
16797,37512
16790,37508
16814,37549
16837,37548
16817,37527
16836,37543
16828,37553
16888,37599
16902,37608
16909,37612
16924,37618
16925,37622
16899,37656
16909,37611
16901,37621
16922,37619
16927,37630
16895,37609
16894,37589
16898,37624
16911,37620
16911,37620
16933,37619
16930,37621
16956,37636
16945,37633
16927,37651
16924,37610
16850,37573
16862,37568
16872,37537
16867,37550
16872,37563
16840,37522
16810,37518
16789,37476
16757,37454
16749,37429
16734,37398
16702,37380
16685,37340
16628,37331
16634,37319
16631,37310
16587,37257
16585,37273
16565,37238
16584,37253
16570,37270
16535,37233
16535,37199
16538,37206
16522,37220
16529,37196
16496,37152
16478,37161
16450,37135
16450,37120
16426,37132
16456,37132
16477,37147
16485,37163
16518,37200
16556,37241
16628,37321
16665,37360
16647,37347
16605,37325
16599,37289
16595,37287
16576,37267
16593,37306
16586,37284
16601,37317
16635,37339
16632,37378
16718,37428
16746,37503
16793,37537
16872,37626
16917,37652
16955,37724
16972,37744
16972,37744
16995,37768
17020,37815
17066,37845
17057,37844
17069,37875
17081,37872
17108,37900
17088,37888
17106,37904
17081,37883
17092,37902
17092,37905
17111,37905
17081,37886
17094,37908
17087,37893
17124,37926
17107,37940
17120,37928
17105,37920
17122,37926
17111,37929
17104,37914
17128,37933
17106,37904
17112,37931
17106,37923
17110,37933
17108,37949
17114,37923
17115,37939
17101,37941
17125,37932
17121,37925
17119,37952
17120,37948
17135,37957
17097,37940
17113,37933
17098,37925
17108,37932
17128,37924
17097,37938
17114,37923
17109,37917
17111,37949
17106,37937
17106,37937
17108,37927
17085,37926
17108,37954
17096,37922
17085,37935
17082,37932
17103,37910
17096,37914
17111,37934
17093,37910
17064,37898
17044,37873
17055,37904
17078,37902
17090,37933
17104,37924
17079,37904
17105,37939
17093,37930
17098,37918
17082,37928
17093,37931
17081,37906
17083,37902
17068,37884
17080,37922
17070,37887
17061,37867
17073,37900
17068,37896
17065,37882
17053,37887
17070,37881
17057,37886
17063,37878
17057,37872
17050,37846
17042,37863
17060,37865
17052,37859
17033,37848
17035,37863
17031,37837
17045,37874
17032,37872
17050,37870
17037,37873
17038,37847
17076,37877
17078,37867
17091,37886
17080,37869
17107,37884
17108,37924
17118,37920
17116,37922
17136,37927
17140,37936
17133,37931
17134,37945
17136,37925
17152,37954
17129,37920
17129,37919
17152,37924
17163,37961
17170,37987
17170,37987
17192,37994
17190,38006
17177,37988
17215,38011
17226,38023
17230,38021
17210,38009
17209,38011
17216,38020
17219,38009
17267,38040
17237,38024
17263,38057
17271,38089
17288,38071
17300,38099
17292,38126
17305,38100
17343,38142
17333,38137
17355,38183
17376,38176
17382,38202
17346,38183
17369,38181
17384,38209
17410,38231
17435,38235
17414,38248
17419,38215
17407,38233
17392,38207
17405,38211
17383,38214
17367,38154
17366,38155
17329,38142
17329,38120
17302,38078
17282,38085
17239,38046
17256,38063
17226,38033
17222,38046
17217,38039
17217,38039
17215,38012
17180,37981
17164,37963
17168,37990
17152,37944
17109,37928
17100,37931
17107,37927
17092,37912
17092,37912
17097,37898
17093,37907
17069,37882
17069,37894
17056,37886
17063,37880
17066,37897
17059,37916
17051,37883
17051,37893
17032,37889
17029,37869
17037,37859
16993,37835
16983,37830
16985,37824
16978,37818
16969,37799
16947,37786
16945,37785
16930,37787
16934,37773
16933,37770
16945,37788
16938,37791
16945,37818
16923,37775
16911,37777
16931,37790
16940,37775
16938,37783
16933,37762
16924,37784
16919,37789
16922,37800
16899,37774
16915,37762
16933,37791
16912,37790
16935,37810
16922,37797
16931,37791
16928,37784
16936,37793
16925,37813
16930,37804
16923,37774
16923,37774
16930,37815
16908,37787
16933,37802
16917,37805
16928,37820
16935,37825
16920,37789
16940,37810
16924,37814
16929,37829
16908,37802
16924,37808
16926,37831
16926,37809
16900,37798
16877,37785
16896,37793
16895,37800
16905,37815
16898,37792
16871,37797
16900,37812
16911,37800
16894,37840
16917,37814
16895,37788
16895,37809
16888,37803
16880,37788
16874,37788
16863,37754
16873,37778
16854,37768
16890,37790
16881,37757
16874,37779
16859,37773
16868,37768
16859,37774
16841,37742
16849,37755
16848,37742
16864,37757
16851,37750
16853,37752
16851,37748
16856,37753
16856,37779
16856,37779
16847,37749
16869,37750
16839,37766
16850,37746
16837,37761
16842,37750
16850,37752
16852,37742
16854,37762
16836,37752
16852,37754
16828,37742
16828,37742
16849,37747
16837,37750
16837,37745
16837,37752
16851,37747
16836,37722
16846,37760
16841,37762
16851,37761
16833,37754
16849,37750
16834,37772
16836,37761
16852,37765
16839,37730
16843,37724
16832,37738
16844,37750
16896,37803
16900,37827
16896,37835
16906,37809
16915,37816
16909,37836
16962,37865
16954,37868
16956,37874
16938,37875
16953,37869
16950,37857
16949,37848
16963,37871
16956,37862
16985,37893
16992,37911
17000,37878
16999,37929
17007,37892
17014,37910
16998,37887
17011,37898
16997,37882
17019,37926
16994,37881
17007,37898
16991,37918
16991,37918
17006,37896
17021,37935
17010,37916
17034,37927
17017,37915
17034,37940
17033,37932
17034,37949
17048,37924
17041,37938
17044,37946
17038,37924
17046,37964
17053,37981
17076,37979
17078,37974
17051,37950
17071,37977
17063,37977
17050,37961
17056,37959
17031,37936
17023,37928
17023,37915
17007,37898
16976,37904
16965,37869
16966,37862
16969,37868
16971,37859
16956,37858
16983,37874
16958,37863
16958,37859
16939,37804
16945,37827
16929,37822
16907,37806
16905,37800
16903,37814
16891,37819
16901,37806
16898,37811
16920,37815
16883,37814
16900,37817
16898,37823
16903,37805
16915,37811
16908,37801
16914,37829
16905,37810
16919,37839
16909,37793
16902,37833
16896,37792
16901,37824
16888,37819
16888,37819
16891,37797
16898,37818
16877,37789
16847,37780
16825,37725
16839,37756
16840,37758
16848,37763
16846,37780
16856,37776
16842,37769
16866,37790
16846,37786
16846,37783
16857,37746
16845,37754
16844,37751
16835,37743
16825,37749
16806,37740
16796,37738
16799,37733
16808,37730
16803,37741
16815,37749
16809,37760
16806,37719
16814,37725
16818,37725
16813,37747
16796,37704
16778,37703
16795,37729
16800,37718
16808,37731
16793,37715
16784,37712
16783,37745
16796,37716
16792,37740
16788,37713
16798,37732
16807,37721
16794,37736
16796,37712
16788,37716
16806,37749
16820,37757
16820,37757
16824,37742
16808,37759
16818,37746
16827,37753
16823,37746
16838,37755
16822,37756
16822,37737
16823,37775
16813,37755
16830,37758
16818,37757
16810,37744
16791,37753
16786,37722
16797,37740
16796,37758
16816,37756
16795,37731
16792,37742
16800,37754
16821,37753
16812,37760
16839,37779
16813,37743
16825,37762
16806,37740
16805,37754
16783,37756
16781,37720
16790,37728
16802,37712
16808,37765
16816,37747
16806,37730
16809,37755
16807,37741
16807,37742
16792,37735
16794,37738
16773,37705
16795,37717
16777,37701
16787,37722
16778,37734
16794,37732
16781,37737
16789,37732
16799,37718
16779,37724
16804,37729
16786,37727
16797,37734
16774,37716
16795,37732
16778,37718
16793,37743
16777,37703
16791,37735
16797,37729
16797,37729
16774,37734
16796,37733
16795,37733
16806,37744
16798,37734
16817,37740
16795,37739
16788,37746
16796,37709
16801,37742
16824,37778
16831,37784
16848,37799
16843,37779
16852,37797
16864,37817
16889,37847
16897,37851
16898,37836
16913,37826
16914,37868
16921,37867
16913,37851
16935,37875
16925,37855
16958,37870
16970,37927
17000,37947
17003,37949
17012,37958
17028,37976
17028,37951
17025,37985
17016,37960
17019,37955
17003,37960
17011,37956
17009,37958
17013,37953
17009,37957
17015,37952
17020,37972
17019,37958
17049,37961
17060,38006
17053,37997
17053,37997
17049,37985
17048,37995
17046,37984
17054,37992
17035,37990
17041,37984
17041,37988
17039,37974
17019,37963
17028,37961
17019,37934
17002,37914
16990,37932
16991,37915
16992,37919
16985,37932
16986,37906
16983,37913
16973,37915
16980,37884
16954,37860
16943,37873
16948,37871
16959,37867
16918,37858
16931,37852
16944,37848
16939,37863
16926,37863
16914,37850
16937,37859
16928,37842
16924,37850
16907,37840
16918,37850
16895,37835
16872,37813
16871,37796
16859,37781
16884,37804
16891,37802
16884,37809
16846,37796
16878,37796
16866,37795
16862,37798
16867,37801
16838,37764
16853,37783
16830,37755
16823,37763
16807,37746
16796,37723
16806,37716
16790,37746
16812,37734
16804,37740
16831,37772
16818,37746
16819,37738
16799,37737
16799,37737
16819,37758
16782,37758
16792,37741
16775,37729
16783,37721
16783,37729
16764,37717
16787,37716
16776,37697
16784,37713
16766,37743
16780,37717
16762,37710
16787,37720
16795,37719
16802,37760
16799,37760
16795,37737
16778,37733
16758,37730
16771,37728
16770,37732
16760,37707
16768,37711
16751,37724
16778,37729
16740,37724
16762,37718
16728,37711
16736,37716
16718,37691
16729,37699
16731,37699
16741,37694
16738,37691
16713,37684
16702,37690
16708,37669
16735,37719
16743,37712
16719,37717
16720,37719
16743,37715
16757,37732
16753,37731
16777,37756
16775,37710
16775,37710
16769,37759
16766,37746
16763,37732
16763,37739
16758,37732
16769,37732
16755,37726
16757,37719
16776,37748
16770,37753
16769,37747
16763,37742
16772,37739
16772,37744
16761,37739
16770,37740
16751,37707
16745,37711
16735,37723
16757,37721
16759,37756
16748,37731
16747,37722
16782,37747
16760,37717
16754,37726
16774,37742
16762,37724
16771,37758
16753,37724
16748,37745
16740,37744
16755,37739
16772,37744
16754,37728
16767,37733
16770,37726
16773,37743
16768,37748
16760,37734
16757,37745
16759,37727
16764,37736
16748,37734
16735,37728
16739,37710
16746,37711
16771,37740
16778,37729
16771,37746
16765,37737
16776,37763
16805,37795
16803,37794
16824,37791
16828,37814
16805,37821
16814,37792
16814,37792
16798,37797
16815,37775
16830,37799
16815,37807
16844,37810
16858,37822
16897,37867
16873,37868
16898,37881
16887,37867
16899,37865
16899,37858
16885,37871
16869,37871
16904,37854
16884,37851
16904,37879
16911,37879
16938,37909
16963,37911
16946,37921
16991,37973
16994,37962
17001,37962
16968,37965
16982,37972
16975,37960
16989,37955
16979,37919
17012,37986
16999,37986
17026,37993
17013,38023
17038,38001
17039,38022
17059,38018
17055,38026
17079,38043
17054,38021
17056,38036
17042,38032
17060,38041
17058,38033
17054,38030
17064,38032
17083,38062
17083,38050
17087,38074
17087,38074
17089,38088
17092,38050
17092,38059
17082,38045
17090,38040
17044,38013
17026,38020
17022,37996
17004,37968
16980,37964
16971,37940
16944,37933
16965,37932
16976,37945
16985,37947
16971,37935
16974,37913
16972,37933
16954,37885
16972,37930
16949,37909
16930,37910
16929,37887
16913,37868
16909,37873
16888,37855
16899,37855
16887,37844
16895,37867
16873,37878
16903,37875
16899,37888
16902,37865
16918,37878
16901,37856
16899,37879
16883,37848
16896,37855
16906,37874
16882,37862
16892,37870
16889,37857
16902,37863
16882,37867
16918,37878
16889,37879
16888,37876
16897,37879
16891,37878
16907,37898
16889,37856
16900,37880
16881,37878
16898,37881
16889,37888
16881,37876
16886,37862
16898,37888
16898,37888
16876,37870
16885,37866
16854,37854
16877,37852
16867,37868
16875,37863
16817,37829
16790,37796
16773,37782
16784,37777
16805,37819
16812,37820
16815,37812
16822,37832
16820,37847
16850,37853
16833,37849
16841,37829
16849,37848
16823,37833
16831,37823
16820,37830
16811,37828
16797,37797
16794,37812
16800,37822
16808,37805
16829,37826
16807,37826
16814,37805
16804,37830
16796,37833
16796,37807
16781,37793
16777,37794
16790,37808
16775,37765
16779,37781
16772,37780
16763,37773
16797,37798
16784,37782
16801,37795
16771,37800
16772,37770
16780,37790
16780,37790
16791,37795
16782,37774
16791,37781
16770,37774
16790,37776
16769,37761
16770,37780
16759,37769
16755,37764
16760,37792
16757,37754
16769,37763
16773,37759
16779,37780
16779,37780
16786,37781
16794,37779
16777,37783
16784,37782
16802,37811
16781,37797
16801,37815
16782,37818
16782,37780
16786,37772
16765,37797
16827,37831
16832,37847
16818,37840
16833,37845
16858,37828
16848,37847
16876,37887
16850,37845
16862,37859
16865,37876
16837,37839
16849,37849
16855,37850
16837,37837
16868,37858
16862,37875
16903,37899
16900,37884
16910,37925
16922,37932
16936,37920
16933,37922
16939,37942
16944,37941
16931,37951
16933,37932
16947,37942
16953,37969
16966,37963
16983,37972
16973,37973
16994,37993
17000,38008
17001,38009
17004,38001
17004,38001
16991,37960
17007,38006
17011,38006
17053,38049
17036,38048
17035,38031
17054,38040
17041,38035
17074,38063
17064,38057
17060,38053
17064,38058
17049,38048
17052,38055
17051,38046
17035,38038
17048,38012
17053,38023
17015,38016
17052,38033
17032,37997
17010,38005
16990,37971
16991,37941
16965,37934
16947,37928
16945,37928
16907,37897
16887,37882
16901,37879
16926,37890
16901,37899
16862,37841
16843,37810
16831,37811
16820,37792
16812,37797
16780,37746
16776,37747
16782,37746
16756,37726
16745,37721
16728,37675
16721,37701
16717,37679
16715,37710
16698,37671
16699,37677
16709,37694
16709,37694
16691,37679
16710,37671
16696,37697
16700,37683
16706,37662
16681,37659
16693,37693
16678,37640
16682,37682
16679,37674
16679,37673
16674,37669
16684,37663
16662,37684
16687,37677
16687,37677
16671,37691
16686,37680
16678,37681
16656,37653
16676,37674
16677,37694
16679,37680
16672,37663
16657,37679
16661,37676
16652,37672
16631,37672
16643,37667
16626,37646
16598,37613
16591,37607
16602,37629
16615,37632
16616,37631
16602,37651
16604,37651
16619,37656
16617,37670
16605,37643
16609,37658
16567,37621
16564,37610
16540,37588
16538,37582
16535,37574
16516,37550
16529,37576
16513,37541
16512,37541
16503,37561
16497,37554
16506,37533
16508,37574
16512,37555
16513,37557
16488,37561
16498,37551
16463,37517
16457,37526
16460,37518
16481,37502
16481,37502
16470,37540
16465,37520
16476,37539
16465,37514
16480,37534
16480,37540
16479,37549
16465,37518
16466,37522
16445,37536
16455,37512
16450,37504
16458,37510
16447,37527
16457,37519
16469,37523
16445,37503
16455,37527
16450,37520
16453,37521
16437,37505
16461,37507
16443,37537
16468,37520
16436,37522
16443,37508
16440,37532
16442,37497
16446,37508
16452,37485
16452,37501
16437,37481
16439,37513
16437,37505
16440,37494
16414,37500
16438,37513
16433,37506
16443,37499
16394,37457
16407,37468
16397,37485
16416,37487
16429,37504
16407,37483
16407,37469
16433,37502
16423,37482
16444,37519
16435,37494
16426,37513
16403,37490
16417,37489
16420,37492
16400,37469
16377,37460
16370,37446
16379,37462
16371,37450
16383,37483
16393,37460
16402,37460
16391,37469
16398,37444
16398,37444
16381,37461
16360,37424
16367,37444
16334,37435
16357,37421
16361,37417
16354,37424
16348,37434
16359,37427
16357,37455
16357,37416
16395,37448
16375,37427
16372,37449
16378,37432
16384,37434
16378,37462
16402,37454
16406,37478
16388,37464
16417,37483
16430,37462
16449,37525
16419,37504
16436,37473
16426,37478
16437,37495
16461,37524
16482,37533
16493,37560
16484,37551
16503,37547
16498,37580
16518,37604
16560,37604
16543,37596
16542,37601
16527,37594
16540,37608
16519,37601
16538,37595
16530,37604
16555,37605
16578,37638
16589,37643
16624,37670
16624,37662
16631,37686
16627,37683
16627,37683
16639,37684
16634,37692
16631,37661
16648,37696
16645,37691
16645,37710
16631,37677
16623,37676
16625,37660
16633,37686
16623,37674
16603,37661
16609,37660
16578,37630
16596,37643
16581,37632
16564,37607
16528,37573
16511,37544
16506,37563
16487,37529
16480,37525
16458,37524
16465,37486
16459,37500
16466,37513
16460,37500
16459,37497
16455,37472
16434,37491
16432,37469
16400,37458
16400,37412
16387,37399
16394,37370
16370,37380
16376,37370
16379,37370
16379,37376
16362,37388
16390,37394
16392,37384
16408,37426
16401,37400
16406,37414
16431,37456
16442,37454
16435,37451
16428,37454
16422,37434
16406,37445
16422,37448
16398,37437
16410,37443
16401,37427
16402,37411
16379,37415
16391,37405
16391,37405
16367,37422
16352,37379
16322,37376
16319,37350
16345,37370
16350,37376
16353,37374
16336,37379
16330,37379
16346,37406
16381,37390
16354,37399
16375,37410
16346,37373
16340,37390
16339,37391
16325,37379
16329,37357
16337,37377
16323,37369
16344,37358
16346,37360
16334,37392
16337,37378
16339,37370
16322,37373
16323,37352
16318,37360
16308,37334
16320,37348
16315,37336
16328,37360
16316,37335
16325,37353
16313,37335
16332,37352
16311,37366
16312,37344
16312,37365
16313,37353
16324,37355
16334,37373
16313,37350
16341,37377
16330,37366
16350,37380
16346,37376
16343,37376
16343,37376
16359,37380
16361,37384
16379,37416
16359,37395
16355,37381
16328,37369
16357,37385
16401,37423
16430,37469
16415,37443
16423,37438
16436,37453
16443,37452
16494,37525
16481,37491
16497,37512
16482,37502
16501,37521
16509,37528
16522,37540
16560,37586
16604,37627
16617,37629
16620,37675
16687,37695
16738,37769
16812,37826
16815,37849
16833,37877
16851,37911
16869,37878
16904,37942
16902,37934
16901,37948
16896,37927
16920,37979
16934,38002
16985,38023
17023,38061
17056,38129
17066,38093
17085,38141
17052,38130
17077,38112
17057,38101
17060,38111
17078,38113
17061,38129
17060,38114
17074,38124
17041,38078
17056,38096
17067,38095
17065,38084
17046,38093
17046,38097
17025,38064
17041,38067
17041,38067
17009,38066
17012,38038
16981,38032
16959,38000
16976,38009
16972,37996
16960,37970
16914,37941
16886,37929
16864,37883
16842,37905
16842,37888
16819,37862
16778,37844
16790,37849
16785,37834
16762,37801
16765,37781
16728,37749
16715,37760
16704,37728
16709,37748
16690,37744
16711,37749
16689,37745
16690,37732
16678,37724
16689,37743
16674,37722
16663,37712
16669,37704
16643,37687
16671,37713
16666,37723
16672,37754
16661,37711
16664,37717
16670,37755
16657,37741
16668,37729
16642,37710
16657,37698
16649,37723
16674,37728
16666,37721
16682,37757
16665,37723
16665,37723
16668,37739
16644,37731
16663,37734
16649,37730
16651,37724
16627,37710
16598,37674
16619,37679
16600,37676
16617,37674
16606,37693
16583,37669
16587,37652
16590,37690
16591,37652
16585,37665
16568,37646
16564,37626
16551,37623
16559,37617
16537,37603
16544,37614
16512,37605
16532,37605
16535,37618
16540,37606
16517,37591
16518,37617
16524,37589
16526,37597
16503,37582
16514,37586
16494,37599
16507,37585
16494,37580
16496,37571
16500,37565
16496,37570
16487,37582
16486,37574
16480,37591
16486,37553
16498,37590
16500,37564
16492,37601
16499,37576
16500,37588
16472,37550
16498,37581
16470,37576
16484,37574
16483,37572
16472,37572
16480,37551
16475,37566
16476,37580
16469,37571
16469,37571
16473,37546
16479,37572
16461,37563
16326,37469
16328,37486
16352,37457
16342,37475
16341,37458
16341,37463
16328,37453
16317,37457
16335,37449
16327,37453
16336,37457
16334,37463
16300,37451
16304,37426
16270,37404
16281,37412
16278,37436
16294,37437
16266,37430
16275,37425
16280,37406
16285,37422
16271,37433
16277,37429
16296,37430
16262,37391
16258,37395
16264,37396
16234,37390
16232,37390
16221,37337
16221,37382
16211,37351
16224,37361
16217,37391
16224,37361
16218,37353
16225,37360
16210,37345
16199,37358
16190,37345
16191,37330
16183,37327
16208,37309
16200,37338
16201,37355
16207,37336
16200,37335
16213,37349
16203,37336
16209,37335
16209,37366
16227,37368
16208,37348
16208,37348
16215,37368
16222,37373
16230,37371
16250,37376
16251,37400
16266,37415
16283,37416
16278,37439
16257,37411
16285,37438
16279,37433
16254,37423
16258,37408
16268,37437
16273,37426
16307,37471
16279,37452
16289,37451
16291,37456
16302,37434
16330,37475
16326,37480
16321,37461
16324,37483
16324,37458
16321,37497
16334,37492
16345,37458
16336,37483
16366,37531
16353,37524
16363,37523
16388,37542
16373,37532
16405,37527
16385,37545
16405,37547
16396,37542
16415,37563
16414,37561
16421,37576
16410,37562
16419,37570
16419,37554
16412,37573
16391,37565
16432,37582
16428,37599
16416,37562
16413,37550
16393,37535
16399,37549
16389,37528
16402,37539
16369,37516
16359,37522
16328,37471
16330,37476
16294,37462
16302,37430
16302,37430
16288,37406
16284,37429
16285,37406
16273,37395
16251,37415
16287,37402
16277,37411
16271,37431
16277,37428
16253,37381
16263,37386
16247,37409
16255,37397
16251,37383
16236,37404
16245,37387
16248,37377
16236,37364
16243,37398
16245,37389
16242,37381
16249,37392
16254,37376
16244,37383
16247,37418
16236,37380
16230,37386
16200,37360
16197,37355
16206,37342
16198,37350
16187,37338
16145,37298
16151,37305
16151,37318
16146,37304
16156,37291
16140,37284
16119,37272
16097,37251
16102,37255
16064,37242
16061,37219
16066,37220
16053,37195
16045,37230
16047,37221
16048,37203
16048,37203
16052,37205
16053,37221
16054,37220
16044,37176
16033,37191
16000,37159
16008,37168
16001,37165
15990,37164
16016,37159
16003,37162
16009,37168
16002,37162
16009,37156
16003,37171
16012,37174
15987,37154
15998,37177
15984,37173
15996,37151
15996,37160
16008,37144
16013,37159
16000,37166
15993,37173
15988,37138
15988,37158
15973,37172
15987,37191
15978,37132
15977,37158
15964,37163
15976,37159
15943,37142
15953,37099
15944,37111
15947,37121
15978,37146
15948,37138
15944,37132
15933,37120
15940,37135
15943,37111
15949,37135
15934,37136
15943,37109
15953,37114
15939,37106
15948,37100
15929,37119
15946,37131
15925,37097
15937,37100
15929,37124
15934,37125
15957,37129
15959,37146
15959,37146
15958,37142
15958,37142
15954,37134
15952,37121
15969,37139
15955,37126
15951,37115
15962,37155
15958,37158
15969,37164
15993,37164
15999,37169
16021,37210
16020,37220
16023,37196
16043,37218
16031,37230
16043,37229
16056,37213
16069,37245
16061,37244
16064,37290
16047,37233
16064,37266
16078,37269
16077,37265
16076,37275
16073,37247
16087,37256
16091,37286
16115,37299
16077,37273
16099,37294
16089,37294
16096,37281
16085,37280
16104,37268
16103,37269
16104,37286
16131,37300
16131,37291
16136,37322
16142,37311
16155,37324
16145,37328
16158,37337
16154,37348
16140,37333
16161,37328
16161,37328
16176,37366
16163,37384
16181,37367
16158,37361
16188,37377
16188,37380
16218,37402
16227,37424
16235,37405
16214,37405
16222,37389
16208,37410
16217,37396
16205,37385
16187,37341
16179,37356
16156,37358
16147,37346
16144,37345
16135,37316
16150,37309
16133,37311
16141,37317
16122,37333
16136,37301
16102,37308
16103,37274
16098,37309
16089,37265
16096,37258
16094,37267
16096,37295
16071,37259
16060,37240
16048,37235
16050,37219
16058,37222
16053,37250
16050,37209
16009,37189
16011,37185
15977,37165
15994,37175
15969,37166
15967,37153
15967,37116
15965,37127
15948,37122
15954,37125
15933,37116
15929,37118
15909,37102
15924,37107
15914,37112
15933,37096
15929,37102
15907,37083
15900,37088
15925,37109
15897,37092
15897,37092
15894,37086
15879,37083
15890,37069
15874,37038
15892,37067
15871,37064
15872,37088
15868,37076
15873,37043
15887,37054
15874,37052
15867,37057
15867,37094
15894,37115
15898,37118
15888,37101
15889,37092
15870,37079
15874,37100
15881,37085
15879,37091
15865,37064
15861,37073
15850,37082
15855,37057
15862,37085
15860,37081
15846,37063
15798,36995
15798,37030
15801,37027
15820,37048
15800,37014
15793,37041
15810,37068
15811,37031
15831,37033
15816,37055
15818,37043
15802,37025
15810,37036
15792,37031
15796,37027
15783,37037
15799,36998
15801,37008
15797,37008
15795,36995
15809,37018
15780,37014
15790,37028
15790,37028
15781,37020
15782,37003
15770,37009
15769,36982
15778,36987
15762,36973
15754,37002
15752,36976
15762,36986
15758,36974
15759,36982
15742,36970
15754,36974
15767,36992
15749,37006
15776,36984
15764,36969
15777,36989
15757,36988
15757,36986
15769,36993
15746,36972
15755,36986
15761,36979
15768,37010
15747,36969
15770,36998
15768,36967
15768,36996
15746,36976
15768,36986
15752,36995
15778,36989
15774,36992
15770,36990
15762,36981
15744,36948
15764,36971
15768,36981
15798,37038
15781,37016
15783,37007
15780,37017
15796,37015
15799,37046
15817,37034
15800,37028
15814,37048
15821,37028
15826,37055
15806,37032
15825,37035
15801,37028
15816,37044
15820,37071
15850,37073
15854,37079
15872,37120
15872,37120
15877,37119
15884,37100
15901,37120
15897,37100
15899,37112
15901,37111
15897,37119
15902,37109
15907,37117
15894,37113
15888,37108
15901,37153
15904,37113
15893,37122
15900,37118
15862,37096
15864,37098
15880,37102
15893,37090
15896,37100
15869,37101
15889,37107
15879,37098
15894,37102
15874,37094
15887,37113
15883,37102
15884,37110
15885,37107
15888,37103
15898,37098
15890,37098
15892,37106
15889,37097
15881,37096
15869,37092
15879,37103
15865,37079
15871,37083
15856,37051
15853,37057
15855,37059
15859,37067
15855,37065
15836,37033
15829,37033
15847,37062
15840,37021
15840,37021
15836,37049
15819,37018
15813,37023
15806,37031
15815,37031
15834,37014
15801,37022
15807,37006
15799,37005
15822,37021
15776,36993
15807,36993
15805,36992
15809,36994
15794,36992
15799,37000
15802,37001
15815,37026
15787,36984
15791,36998
15771,37002
15773,37002
15799,37010
15776,36986
15776,36998
15778,36986
15775,36983
15786,36995
15782,36993
15791,37009
15778,36958
15796,37015
15774,36986
15791,36991
15763,36973
15766,36985
15759,36991
15765,36967
15764,36979
15749,36950
15754,36956
15747,36970
15734,36963
15741,36939
15724,36958
15688,36893
15668,36893
15663,36966
15688,36989
15676,36963
15675,36981
15665,36966
15662,36965
15666,36987
15681,36975
15683,36981
15669,36967
15681,36984
15681,36984
15663,36949
15652,36944
15647,36934
15640,36968
15619,36934
15633,36922
15644,36964
15646,36932
15656,36969
15636,36922
15641,36967
15654,36953
15645,36941
15644,36931
15636,36931
15633,36922
15636,36924
15640,36932
15645,36943
15649,36923
15656,36944
15660,36983
15689,36983
15684,36976
15680,36981
15716,37020
15716,36991
15720,37042
15710,36992
15736,37020
15735,37031
15741,37036
15752,37049
15774,37069
15743,37080
15766,37061
15762,37045
15743,37042
15771,37067
15791,37089
15796,37101
15785,37079
15799,37091
15765,37098
15802,37109
15802,37109
15813,37115
15813,37115
15812,37116
15824,37109
15810,37124
15826,37149
15812,37130
15838,37125
15868,37148
15853,37162
15885,37191
15909,37183
15919,37245
15931,37227
15950,37225
15938,37215
15934,37226
15941,37212
15951,37238
15937,37243
15943,37247
15946,37251
15976,37263
15989,37272
15966,37245
15981,37263
15951,37226
15954,37244
15944,37263
15956,37259
15935,37256
15946,37223
15943,37216
15960,37215
15929,37224
15924,37226
15927,37203
15934,37223
15922,37204
15883,37166
15892,37157
15866,37144
15843,37129
15826,37109
15837,37104
15838,37105
15810,37098
15788,37071
15800,37070
15812,37064
15799,37077
15814,37108
15789,37079
15779,37077
15748,37050
15759,37036
15753,37043
15735,37017
15735,37017
15736,37015
15716,36973
15697,36975
15685,36953
15680,36952
15652,36941
15638,36925
15650,36913
15644,36929
15640,36904
15640,36909
15620,36923
15644,36915
15624,36927
15643,36912
15620,36918
15630,36899
15620,36919
15621,36897
15630,36901
15616,36910
15616,36908
15612,36909
15631,36938
15622,36917
15634,36941
15628,36938
15635,36955
15624,36937
15638,36943
15643,36942
15662,36971
15642,36966
15668,36966
15665,36981
15636,36970
15671,36980
15672,36985
15665,36971
15669,36990
15656,36994
15663,36985
15652,37001
15661,36987
15660,36981
15658,36967
15648,36957
15648,36957
15622,36932
15621,36960
15631,36938
15641,36976
15626,36973
15630,36957
15644,36995
15653,36991
15656,36997
15642,36997
15658,36991
15658,36991
15663,36990
15663,36995
15667,36985
15646,36993
15655,36990
15653,36968
15664,37004
15648,36997
15646,37006
15645,36995
15665,37000
15639,37002
15660,36995
15638,36996
15646,37002
15649,36998
15656,36987
15659,37006
15649,36998
15675,37004
15677,37008
15673,37026
15684,37057
15692,37035
15692,37041
15692,37034
15716,37046
15704,37025
15707,37039
15710,37012
15704,37042
15701,37052
15708,37052
15703,37048
15728,37049
15710,37101
15721,37064
15745,37074
15745,37086
15743,37084
15753,37115
15751,37108
15764,37113
15745,37097
15739,37087
15746,37082
15738,37099
15738,37099
15780,37114
15787,37133
15776,37119
15794,37137
15788,37131
15823,37178
15828,37181
15843,37179
15840,37174
15837,37180
15850,37194
15848,37198
15844,37202
15847,37205
15876,37204
15868,37190
15894,37214
15897,37229
15880,37242
15865,37200
15878,37206
15856,37222
15861,37211
15863,37210
15876,37197
15852,37173
15854,37182
15831,37150
15839,37174
15821,37136
15824,37158
15812,37148
15819,37162
15816,37157
15815,37154
15798,37143
15785,37119
15781,37105
15785,37115
15775,37137
15796,37126
15787,37111
15758,37100
15750,37082
15740,37055
15740,37055
15742,37075
15730,37058
15721,37042
15709,37033
15704,37033
15683,37008
15670,37013
15671,36971
15665,36989
15673,37014
15673,37014
15671,36974
15665,36996
15661,36980
15664,36979
15653,36988
15644,36953
15654,36967
15622,36960
15628,36943
15617,36927
15624,36929
15594,36939
15606,36929
15583,36934
15607,36925
15602,36936
15606,36945
15611,36931
15617,36916
15606,36947
15591,36929
15604,36926
15600,36929
15598,36926
15601,36915
15588,36916
15597,36928
15586,36936
15598,36952
15597,36913
15576,36929
15591,36906
15584,36918
15576,36909
15569,36895
15582,36946
15557,36901
15573,36904
15547,36915
15558,36905
15548,36898
15534,36866
15519,36892
15524,36897
15555,36924
15550,36910
15540,36873
15540,36873
15556,36902
15551,36889
15567,36926
15560,36925
15581,36921
15564,36931
15576,36927
15597,36934
15589,36936
15601,36959
15576,36907
15596,36934
15604,36930
15632,36988
15637,37000
15678,37031
15691,37019
15730,37099
15749,37092
15763,37126
15784,37141
15831,37196
15894,37239
15934,37274
15947,37291
16001,37320
16025,37337
16031,37340
16070,37365
16075,37384
15977,37258
15714,36974
15585,36821
15517,36744
15502,36696
15471,36655
15398,36587
15358,36500
15270,36427
15106,36239
15115,36260
15854,37056
16925,38165
18046,39359
18904,40259
19840,41182
20595,41943
21341,42674
21867,43160
21766,43061
21588,42893
20880,42205
20114,41372
19398,40640
18580,39750
17771,38916
17364,38537
17270,38479
17164,38398
17108,38386
17163,38463
17163,38463
17316,38668
17349,38758
17530,38971
17815,39321
18106,39666
18373,39979
18536,40145
18523,40157
18416,39966
18250,39752
18108,39555
18103,39512
18119,39487
18036,39308
17998,39224
18045,39251
18151,39306
18128,39206
18018,39012
17977,38952
18025,38959
18034,39006
18146,39097
18415,39357
18530,39484
18535,39454
18404,39345
18350,39268
18338,39280
18309,39228
18185,39050
18117,38981
18170,39009
18284,39146
18400,39288
18488,39402
18480,39378
18448,39364
18424,39354
18410,39318
18331,39251
18251,39149
18250,39174
18280,39186
18255,39173
18291,39235
18354,39290
18354,39290
18418,39353
18537,39466
18696,39618
18867,39779
18986,39918
19087,40015
19144,40042
19158,40054
19195,40112
19209,40116
19181,40088
19147,40073
19128,40055
19142,40043
19096,40036
19114,40029
19106,40051
19114,40024
19086,40023
19081,40013
19079,40016
19068,40008
19045,40012
19026,39997
19006,39967
18952,39935
18960,39909
18987,39938
19079,39999
19258,40201
19400,40365
19536,40477
19697,40627
19837,40773
19915,40809
19897,40821
19876,40786
19822,40721
19786,40697
19708,40630
19661,40587
19646,40568
19658,40602
19628,40567
19634,40578
19586,40562
19593,40533
19591,40540
19607,40532
19634,40563
19601,40513
19577,40513
19541,40474
19525,40484
19523,40466
19510,40446
19477,40431
19470,40418
19449,40393
19449,40393
19415,40361
19408,40349
19403,40351
19361,40313
19335,40280
19330,40262
19311,40255
19288,40237
19295,40204
19289,40245
19269,40213
19295,40223
19289,40214
19283,40230
19268,40224
19269,40215
19262,40221
19249,40180
19233,40151
19203,40144
19201,40153
19187,40094
19163,40100
19153,40087
19177,40106
19168,40128
19158,40070
19125,40063
19080,40024
19076,40019
19101,40007
19104,40016
19080,40014
19035,39981
18993,39927
18999,39928
18935,39880
18904,39830
18874,39814
18852,39769
18819,39758
18779,39710
18765,39705
18720,39679
18697,39646
18660,39590
18626,39595
18626,39595
18600,39542
18598,39557
18584,39532
18569,39524
18576,39529
18583,39527
18575,39526
18529,39482
18522,39483
18517,39509
18510,39464
18489,39455
18471,39455
18496,39494
18477,39449
18458,39439
18429,39425
18445,39431
18429,39434
18420,39394
18390,39388
18373,39358
18387,39383
18365,39381
18310,39287
18262,39247
18232,39238
18232,39247
18262,39297
18253,39277
18206,39219
18186,39236
18225,39250
18212,39229
18201,39241
18184,39229
18209,39222
18192,39247
18208,39223
18219,39249
18209,39263
18207,39247
18217,39221
18183,39245
18200,39213
18186,39223
18150,39203
18167,39227
18144,39195
18130,39196
18103,39175
18086,39166
18092,39165
18082,39157
18095,39163
18083,39144
18083,39144
18057,39148
18038,39131
18038,39131
18055,39143
18036,39114
18016,39113
18016,39121
18047,39142
18028,39119
18014,39107
18033,39142
18021,39115
18007,39133
18004,39125
18002,39124
18002,39113
17991,39109
18013,39127
18009,39135
17999,39123
17963,39086
17945,39064
17973,39115
17985,39129
17966,39082
17962,39087
17945,39087
17969,39090
17976,39093
17985,39101
17991,39115
17985,39090
18003,39131
17999,39127
18008,39130
17988,39130
17987,39110
17979,39130
17974,39121
17978,39103
17971,39097
17954,39080
17935,39049
17883,39020
17859,38985
17812,38908
17778,38908
17778,38908
17736,38853
17697,38806
17680,38781
17664,38750
17649,38752
17638,38727
17631,38732
17625,38738
17652,38730
17639,38738
17638,38749
17621,38703
17620,38733
17620,38725
17621,38722
17615,38706
17589,38703
17578,38694
17605,38728
17614,38699
17571,38668
17527,38649
17528,38646
17515,38631
17537,38651
17530,38622
17505,38613
17534,38643
17536,38653
17547,38642
17546,38645
17571,38677
17581,38694
17604,38727
17610,38733
17620,38739
17635,38752
17650,38756
17635,38748
17657,38765
17634,38733
17637,38765
17613,38744
17637,38754
17628,38768
17633,38746
17637,38745
17622,38733
17609,38725
17593,38722
17593,38707
17568,38680
17504,38636
17477,38588
17427,38542
17433,38541
17411,38533
17427,38516
17427,38516
17364,38490
17351,38472
17331,38452
17300,38423
17263,38362
17236,38370
17218,38350
17229,38338
17212,38319
17217,38321
17201,38312
17216,38320
17178,38319
17180,38280
17167,38287
17116,38233
17095,38212
17065,38158
17043,38166
17032,38135
17021,38156
17013,38130
17022,38134
17008,38144
17019,38137
16975,38078
16977,38109
16977,38089
16969,38102
16946,38090
16932,38061
16905,38048
16869,37982
16879,38008
16853,37999
16788,37927
16744,37869
16738,37877
16719,37856
16719,37851
16683,37800
16644,37788
16599,37738
16599,37754
16607,37728
16607,37728
16593,37766
16575,37739
16579,37720
16570,37728
16589,37729
16583,37724
16594,37744
16603,37753
16581,37735
16599,37731
16579,37748
16591,37737
16584,37746
16563,37729
16588,37743
16576,37718
16583,37723
16565,37734
16562,37702
16573,37718
16579,37749
16571,37738
16582,37749
16565,37753
16572,37720
16574,37751
16579,37757
16606,37750
16599,37774
16605,37781
16599,37772
16601,37764
16593,37772
16604,37779
16597,37779
16591,37771
16574,37757
16549,37705
16514,37678
16529,37694
16521,37703
16553,37737
16521,37706
16535,37711
16534,37713
16554,37740
16562,37745
16587,37755
16592,37774
16582,37805
16638,37801
16647,37848
16653,37844
16648,37828
16643,37817
16690,37883
16673,37859
16713,37907
16738,37929
16738,37929
16778,37961
16783,37995
16809,37988
16841,38036
16830,38048
16857,38052
16863,38073
16901,38116
16913,38112
16924,38104
16959,38183
16976,38183
17012,38228
17038,38243
17070,38306
17136,38366
17143,38365
17160,38400
17191,38432
17228,38475
17247,38516
17217,38470
17231,38470
17252,38501
17314,38580
17301,38537
17234,38478
17235,38492
17252,38519
17282,38534
17290,38537
17305,38543
17278,38532
17279,38527
17292,38517
17320,38566
17307,38569
17296,38550
17284,38538
17326,38583
17306,38550
17309,38567
17330,38574
17334,38575
17326,38558
17326,38576
17303,38559
17319,38573
17319,38573
17289,38556
17273,38518
17249,38506
17227,38470
17214,38459
17155,38418
17094,38307
17053,38297
17037,38269
17030,38250
17001,38223
16981,38220
16938,38193
16955,38197
16936,38209
16954,38190
16922,38161
16932,38154
16933,38148
16918,38159
16932,38162
16924,38131
16910,38162
16923,38175
16926,38158
16897,38133
16903,38153
16900,38138
16916,38152
16899,38150
16895,38150
16881,38158
16882,38131
16896,38144
16895,38139
16904,38160
16909,38140
16913,38182
16895,38146
16887,38152
16876,38123
16870,38118
16877,38121
16875,38112
16858,38119
16865,38123
16868,38148
16860,38112
16854,38120
16849,38122
16863,38125
16832,38077
16811,38094
16767,38016
16746,38012
16756,38000
16782,38062
16782,38062
16768,38029
16753,38037
16726,38007
16738,38013
16753,38050
16768,38035
16776,38040
16743,38010
16733,37992
16717,38009
16730,38004
16685,37952
16682,37955
16706,37978
16703,37972
16712,38003
16666,37950
16681,37976
16674,37982
16662,37933
16693,37957
16659,37954
16676,37980
16671,37952
16668,37967
16669,37953
16636,37930
16657,37946
16658,37949
16655,37931
16663,37947
16663,37920
16678,37967
16644,37949
16645,37942
16631,37933
16661,37953
16659,37960
16670,37951
16654,37954
16666,37955
16673,37964
16684,37989
16668,37969
16677,37943
16680,37981
16677,37973
16696,38008
16696,38008
16692,37975
16700,38005
16682,37986
16693,37995
16691,37998
16702,38002
16689,37985
16672,37961
16670,37970
16669,37962
16725,38021
16717,38058
16720,38046
16720,38036
16742,38045
16805,38090
16824,38130
16840,38161
16830,38137
16859,38155
16879,38189
16884,38176
16893,38193
16899,38183
16916,38212
16948,38267
16989,38292
17009,38313
17060,38348
17069,38395
17101,38420
17117,38423
17138,38473
17166,38488
17196,38528
17182,38505
17143,38458
17189,38498
17207,38513
17174,38496
17203,38510
17218,38510
17238,38531
17245,38568
17263,38571
17299,38598
17292,38647
17285,38611
17282,38589
17300,38622
17352,38663
17412,38723
17403,38706
17393,38706
17406,38713
17424,38737
17449,38745
17421,38742
17369,38669
17392,38682
17406,38710
17397,38708
17395,38700
17401,38728
17403,38709
17420,38710
17420,38710
17415,38738
17404,38694
17393,38679
17376,38661
17358,38662
17363,38675
17344,38618
17313,38615
17284,38595
17260,38548
17231,38510
17196,38464
17226,38503
17225,38514
17191,38476
17113,38392
17094,38374
17077,38355
17051,38318
17073,38350
17051,38326
17038,38306
17031,38311
17008,38282
16959,38220
16952,38219
16966,38246
16966,38233
16972,38224
16974,38252
16981,38231
16956,38222
16953,38216
16934,38204
16957,38220
16957,38218
16936,38192
16909,38185
16931,38208
16935,38212
16910,38200
16893,38164
16907,38186
16907,38186
16895,38179
16888,38184
16910,38180
16910,38180
16908,38192
16907,38195
16885,38185
16891,38185
16885,38185
16894,38176
16884,38149
16832,38137
16824,38095
16821,38123
16828,38129
16830,38117
16830,38117
16839,38121
16785,38098
16812,38100
16815,38104
16822,38132
16785,38088
16756,38069
16742,38063
16721,38009
16747,38061
16761,38053
16762,38090
16733,38049
16731,38051
16721,38049
16746,38043
16718,38034
16747,38035
16713,38050
16741,38035
16732,38049
16716,38064
16710,38009
16707,38036
16698,38020
16705,38036
16710,38020
16733,38048
16720,38070
16751,38043
16739,38046
16715,38050
16739,38062
16728,38057
16726,38048
16709,38054
16730,38059
16723,38066
16727,38078
16729,38074
16744,38074
16738,38071
16766,38079
16751,38067
16755,38103
16752,38082
16752,38082
16746,38097
16738,38089
16747,38071
16723,38083
16718,38055
16724,38078
16746,38067
16711,38079
16736,38050
16737,38065
16725,38053
16744,38075
16713,38041
16716,38078
16726,38063
16705,38053
16719,38064
16725,38068
16709,38055
16730,38065
16721,38031
16729,38056
16734,38064
16737,38064
16745,38072
16720,38051
16735,38088
16727,38077
16723,38060
16707,38060
16712,38059
16733,38074
16717,38042
16735,38072
16706,38041
16692,38001
16688,38005
16696,38034
16714,38077
16736,38076
16744,38082
16709,38063
16722,38070
16737,38081
16745,38090
16750,38063
16764,38136
16770,38120
16774,38116
16758,38129
16783,38107
16788,38128
16794,38154
16796,38145
16811,38155
16843,38184
16867,38206
16904,38228
16894,38240
16929,38268
16929,38268
16927,38272
16945,38287
16943,38284
16965,38306
16967,38330
17014,38349
17014,38384
17063,38401
17079,38404
17080,38399
17092,38420
17068,38429
17095,38433
17130,38469
17121,38443
17102,38435
17078,38426
17100,38438
17108,38452
17125,38437
17134,38456
17106,38412
17102,38450
17115,38433
17119,38442
17118,38444
17134,38456
17119,38462
17129,38457
17154,38464
17125,38459
17140,38467
17141,38460
17191,38497
17188,38532
17217,38557
17223,38564
17228,38561
17241,38570
17276,38590
17282,38609
17285,38589
17234,38533
17244,38565
17272,38598
17245,38569
17273,38557
17273,38557
17280,38602
17267,38587
17284,38574
17290,38575
17283,38599
17272,38590
17278,38601
17306,38618
17290,38615
17253,38579
17238,38566
17233,38552
17204,38531
17194,38489
17170,38480
17138,38445
17114,38410
17093,38403
17077,38375
17035,38317
17030,38352
17016,38318
17031,38308
17023,38313
17041,38316
17013,38293
17002,38293
16974,38279
16976,38253
16956,38259
16923,38214
16925,38214
16915,38199
16925,38216
16899,38200
16899,38202
16896,38204
16888,38189
16892,38189
16904,38202
16893,38176
16897,38211
16891,38193
16900,38201
16879,38197
16893,38212
16885,38203
16904,38211
16923,38226
16921,38229
16928,38224
16926,38240
16943,38284
16939,38271
16941,38259
16922,38238
16920,38228
16896,38208
16896,38212
16892,38240
16892,38240
16933,38264
16911,38239
16920,38239
16913,38235
16926,38253
16905,38247
16920,38268
16889,38232
16860,38200
16846,38178
16844,38177
16873,38208
16870,38220
16879,38210
16881,38215
16904,38228
16885,38235
16889,38233
16902,38233
16883,38202
16870,38206
16836,38142
16815,38151
16810,38152
16774,38136
16766,38117
16786,38131
16759,38089
16747,38104
16740,38100
16737,38116
16736,38076
16731,38080
16727,38082
16721,38067
16725,38083
16722,38062
16727,38081
16709,38066
16706,38072
16712,38067
16734,38090
16734,38053
16735,38098
16716,38088
16746,38085
16746,38085
16740,38087
16758,38103
16753,38115
16759,38108
16776,38131
16793,38133
16771,38126
16757,38101
16762,38098
16786,38137
16828,38188
16865,38200
16837,38177
16848,38207
16832,38192
16877,38204
16905,38248
16901,38263
16914,38251
16902,38238
16915,38245
16894,38242
16908,38266
16911,38218
16915,38243
16921,38275
16950,38290
16945,38297
16969,38293
16949,38286
16957,38305
16960,38300
16951,38298
16942,38276
16935,38270
16932,38266
16940,38272
16915,38280
16951,38279
16935,38277
16962,38307
16939,38300
16959,38309
16954,38302
16959,38302
16976,38323
16951,38297
16975,38310
16957,38303
16953,38303
16946,38286
16948,38307
16946,38312
16945,38293
16945,38284
16947,38291
16950,38286
16934,38275
16930,38272
16920,38243
16920,38243
16950,38285
17001,38338
17035,38395
17027,38366
17020,38351
17016,38384
17074,38389
17071,38425
17070,38408
17071,38414
17076,38411
17052,38407
17041,38407
17072,38403
17043,38367
17062,38398
17037,38387
17067,38402
17075,38421
17094,38414
17126,38445
17111,38434
17132,38459
17118,38441
17142,38491
17138,38456
17066,38392
17073,38382
17115,38435
17088,38407
17107,38425
17117,38438
17146,38450
17147,38454
17138,38430
17137,38442
17124,38431
17135,38434
17108,38420
17130,38426
17148,38464
17144,38424
17017,38265
17060,38338
17063,38293
17054,38294
17044,38299
17013,38272
17013,38272
16986,38247
16952,38195
16904,38128
16861,38097
16795,38050
16796,38008
16762,37992
16787,38017
16778,38018
16779,38028
16762,38035
16773,37992
16781,38012
16757,37984
16747,37991
16722,37964
16745,37986
16722,37991
16722,37961
16716,37966
16719,37947
16722,37952
16706,37951
16714,37964
16722,37968
16678,37929
16686,37937
16694,37934
16711,37969
16700,37934
16697,37955
16692,37961
16687,37941
16674,37941
16683,37944
16680,37949
16664,37946
16664,37935
16664,37928
16647,37937
16665,37934
16651,37905
16675,37947
16653,37938
16666,37933
16649,37947
16662,37940
16648,37955
16670,37975
16636,37921
16644,37957
16627,37923
16623,37925
16609,37931
16605,37923
16612,37917
16612,37917
16635,37930
16619,37894
16630,37940
16622,37910
16634,37923
16627,37923
16621,37940
16631,37921
16613,37928
16618,37944
16615,37907
16611,37921
16630,37939
16635,37967
16631,37903
16613,37943
16634,37953
16631,37913
16646,37932
16613,37914
16624,37944
16596,37928
16621,37934
16623,37935
16618,37927
16623,37916
16622,37921
16625,37940
16605,37914
16564,37879
16534,37847
16535,37845
16546,37876
16581,37894
16603,37893
16575,37903
16593,37909
16592,37887
16628,37936
16632,37938
16637,37958
16609,37939
16619,37936
16619,37950
16613,37936
16610,37943
16600,37944
16611,37922
16611,37922
16617,37941
16620,37941
16650,37965
16626,37962
16644,37972
16632,37939
16635,37947
16624,37938
16614,37942
16616,37936
16606,37928
16604,37940
16618,37945
16633,37962
16645,37957
16637,37945
16644,37980
16647,37983
16674,37990
16683,37994
16694,38012
16679,37988
16690,38020
16691,38024
16675,37995
16688,38014
16666,38033
16689,38014
16671,38027
16684,38024
16691,38007
16668,37999
16681,38029
16674,38018
16681,38025
16678,38011
16674,38008
16665,37994
16684,38013
16683,38028
16688,38008
16689,38024
16695,38046
16723,38073
16724,38070
16734,38071
16748,38091
16734,38062
16726,38060
16710,38042
16732,38052
16755,38068
16783,38122
16769,38105
16753,38111
16766,38112
16782,38111
16782,38111
16813,38158
16839,38175
16849,38194
16839,38185
16849,38189
16858,38185
16877,38207
16859,38205
16879,38208
16928,38266
16964,38305
17025,38347
17033,38384
17065,38397
17119,38445
17131,38455
17134,38467
17126,38472
17139,38485
17138,38473
17168,38502
17192,38512
17204,38540
17210,38528
17215,38570
17224,38564
17201,38557
17122,38440
17142,38471
17171,38500
17164,38484
17159,38488
17138,38464
17134,38460
17122,38450
17142,38455
17136,38447
17115,38418
17073,38403
17062,38379
17051,38338
17017,38336
16973,38280
16965,38288
16944,38240
16953,38262
16953,38262
16950,38261
16951,38270
16947,38266
16941,38264
16937,38239
16939,38258
16915,38239
16894,38206
16892,38196
16892,38189
16885,38204
16862,38173
16873,38181
16868,38202
16879,38199
16886,38200
16878,38219
16882,38204
16875,38174
16887,38181
16860,38189
16880,38189
16862,38185
16869,38186
16889,38190
16871,38193
16879,38194
16861,38193
16873,38175
16868,38188
16868,38178
16869,38188
16879,38200
16868,38184
16865,38205
16863,38193
16850,38164
16808,38152
16792,38095
16802,38118
16818,38157
16828,38130
16818,38128
16795,38133
16799,38102
16817,38134
16829,38133
16808,38149
16812,38128
16814,38133
16795,38134
16814,38121
16796,38100
16782,38116
16782,38103
16806,38149
16793,38105
16809,38156
16809,38156
16797,38122
16804,38154
16797,38137
16786,38125
16788,38121
16763,38106
16780,38113
16755,38102
16750,38097
16751,38094
16739,38088
16730,38067
16742,38081
16724,38087
16733,38084
16715,38096
16738,38059
16739,38097
16721,38051
16727,38061
16699,38056
16717,38050
16705,38050
16696,38062
16693,38064
16696,38037
16703,38057
16696,38052
16707,38067
16704,38051
16703,38059
16708,38067
16693,38088
16682,38033
16715,38066
16710,38063
16658,38033
16653,38010
16643,38036
16661,38008
16683,38043
16660,38014
16658,38043
16657,38035
16681,38050
16684,38062
16693,38064
16701,38060
16701,38060
16684,38036
16682,38038
16662,38057
16660,38039
16676,38052
16660,38031
16676,38051
16682,38062
16719,38093
16745,38100
16745,38100
16752,38128
16778,38144
16782,38147
16774,38147
16790,38171
16784,38153
16801,38163
16792,38163
16817,38199
16832,38194
16822,38203
16812,38199
16854,38187
16843,38221
16840,38204
16881,38226
16886,38241
16881,38272
16912,38271
16927,38278
16922,38298
16949,38309
16955,38311
16954,38328
16969,38334
16954,38339
16975,38327
16960,38310
16952,38333
16934,38290
16949,38338
16997,38357
17022,38377
17016,38397
17014,38372
17028,38405
17041,38398
17089,38435
17080,38448
17076,38473
17098,38446
17103,38463
17098,38473
17116,38499
17081,38430
17082,38446
17082,38446
17112,38481
17127,38486
17163,38537
17168,38547
17212,38569
17236,38589
17236,38584
17230,38581
17239,38595
17236,38593
17232,38601
17226,38599
17218,38559
17206,38542
17166,38505
17134,38470
17082,38430
17076,38438
17088,38442
17077,38429
17034,38386
17019,38362
17000,38331
16987,38322
17011,38322
17006,38315
16970,38312
16947,38291
16946,38273
16925,38246
16915,38241
16872,38202
16884,38222
16876,38231
16880,38203
16886,38214
16892,38230
16902,38229
16872,38196
16850,38218
16868,38200
16829,38194
16829,38159
16845,38182
16815,38171
16826,38151
16822,38159
16822,38159
16832,38173
16837,38157
16814,38162
16828,38166
16816,38155
16803,38169
16810,38149
16804,38148
16804,38159
16779,38155
16804,38158
16804,38158
16787,38151
16784,38139
16797,38155
16779,38133
16789,38152
16763,38121
16776,38128
16761,38141
16765,38130
16799,38148
16769,38149
16744,38114
16716,38084
16717,38084
16738,38126
16745,38117
16774,38170
16751,38155
16763,38143
16782,38133
16781,38168
16804,38181
16775,38143
16778,38155
16762,38161
16750,38144
16733,38117
16746,38117
16745,38143
16744,38131
16768,38144
16769,38131
16774,38175
16761,38157
16774,38181
16749,38155
16746,38151
16736,38143
16739,38112
16729,38111
16731,38103
16708,38094
16714,38104
16735,38115
16732,38128
16720,38102
16741,38129
16720,38100
16720,38100
16733,38145
16723,38116
16718,38119
16710,38122
16711,38107
16719,38105
16718,38110
16719,38109
16711,38130
16721,38114
16742,38146
16730,38146
16733,38136
16716,38120
16738,38133
16714,38136
16729,38131
16727,38161
16726,38129
16747,38163
16743,38146
16742,38155
16754,38166
16749,38152
16763,38155
16755,38145
16744,38151
16740,38124
16765,38190
16805,38213
16849,38277
16839,38278
16837,38262
16895,38315
16950,38363
17003,38418
17006,38425
17031,38463
17019,38435
17024,38428
17058,38450
17048,38473
17070,38468
17061,38458
17111,38522
17111,38522
17164,38576
17231,38612
17266,38685
17298,38677
17310,38724
17328,38742
17348,38743
17346,38766
17410,38772
17381,38776
17415,38781
17438,38816
17438,38816
17451,38841
17486,38853
17513,38884
17555,38915
17606,38976
17517,38868
17532,38879
17534,38877
17511,38870
17507,38864
17587,38932
17569,38927
17565,38916
17574,38913
17604,38952
17586,38942
17634,38970
17624,38979
17630,38995
17601,38979
17606,38963
17613,38975
17602,38937
17602,38950
17588,38948
17536,38866
17524,38859
17520,38855
17529,38858
17484,38802
17452,38782
17399,38722
17345,38673
17309,38639
17279,38595
17223,38560
17210,38526
17234,38540
17238,38580
17251,38571
17217,38536
17195,38529
17162,38484
17141,38483
17128,38480
17114,38433
17114,38433
17116,38444
17102,38434
17104,38422
17085,38405
17085,38397
17055,38385
17062,38389
17048,38402
17074,38413
17063,38412
17068,38396
17077,38417
17080,38418
17074,38393
17064,38388
17040,38372
17034,38366
17027,38375
17011,38374
17042,38368
17018,38384
17023,38371
17053,38400
17033,38374
17043,38372
17046,38381
17028,38382
17032,38395
17010,38396
17026,38400
17016,38389
17011,38394
17008,38389
17021,38380
16998,38374
17019,38394
17006,38363
16993,38373
16983,38360
17000,38367
16980,38394
16981,38363
17007,38371
16983,38363
16996,38378
16948,38320
16927,38303
16890,38291
16908,38290
16911,38323
16950,38340
16929,38327
16942,38339
16944,38330
16952,38366
16999,38373
16972,38380
16975,38367
16975,38367
16997,38384
16992,38393
16992,38408
16974,38363
16966,38370
16954,38364
16970,38356
16987,38383
16973,38396
16991,38369
16992,38404
16958,38396
16967,38400
16962,38363
16963,38383
16957,38366
16941,38353
16956,38342
16939,38336
16958,38359
16990,38385
17072,38499
17098,38538
17132,38584
17174,38633
17220,38693
17289,38795
17390,38898
17488,39034
17594,39191
17657,39283
17593,39198
17452,39049
17383,38984
17339,38937
17323,38892
17265,38864
17259,38839
17218,38795
17208,38797
17164,38778
17152,38749
17112,38715
17094,38679
17083,38697
17072,38652
17075,38632
17083,38673
17083,38673
17054,38657
17074,38688
17062,38657
17071,38662
17060,38653
17053,38644
17064,38639
17039,38629
17029,38603
17011,38579
16991,38592
17024,38606
17069,38656
17051,38641
17058,38623
17044,38633
17074,38651
17073,38670
17103,38673
17086,38681
17087,38660
17080,38668
17083,38661
17072,38666
17062,38655
17076,38663
17076,38654
17073,38652
17060,38650
17071,38652
17109,38687
17103,38697
17112,38682
17079,38657
17069,38646
17054,38633
17048,38634
17055,38620
17065,38640
17034,38611
17059,38648
17059,38615
17068,38648
17056,38613
17032,38630
17044,38626
17044,38637
17031,38580
17052,38605
17029,38614
17040,38632
17010,38599
17031,38632
17023,38610
17035,38584
17041,38630
17052,38621
17052,38621
17056,38615
17039,38613
17044,38637
17038,38644
17026,38628
17050,38620
17023,38614
17030,38612
17045,38610
17033,38590
17045,38614
17024,38627
17046,38624
17017,38607
17033,38628
17012,38639
17030,38616
17044,38603
17036,38627
17038,38632
17032,38595
17023,38600
17027,38595
17026,38614
17007,38588
17026,38610
17023,38622
17013,38589
17026,38608
17011,38588
17025,38607
17016,38608
17023,38598
17013,38611
17033,38617
17013,38607
17014,38592
16975,38549
16998,38563
17002,38595
17040,38630
17029,38609
17014,38608
17044,38616
17062,38639
17097,38700
17124,38721
17124,38721
17143,38742
17143,38729
17116,38700
17126,38707
17137,38727
17122,38678
17119,38701
17138,38715
17173,38732
17221,38783
17225,38794
17257,38836
17270,38837
17258,38823
17272,38832
17248,38799
17244,38793
17260,38807
17230,38784
17250,38815
17254,38813
17271,38837
17268,38842
17278,38848
17284,38861
17286,38858
17283,38828
17285,38826
17309,38848
17316,38868
17336,38871
17298,38860
17313,38863
17320,38855
17334,38867
17320,38888
17315,38856
17316,38884
17299,38853
17311,38859
17290,38841
17285,38838
17300,38855
17310,38865
17367,38902
17411,38961
17463,39002
17448,38992
17464,38984
17448,38986
17332,38852
17356,38887
17352,38855
17351,38859
17353,38876
17333,38834
17306,38820
17278,38784
17210,38709
17209,38689
17197,38691
17197,38691
17212,38725
17218,38718
17177,38676
17162,38658
17145,38656
17163,38650
17177,38672
17143,38648
17123,38648
17113,38615
17115,38623
17123,38622
17085,38559
17072,38580
17064,38567
17078,38564
17059,38576
17086,38598
17096,38596
17088,38577
17058,38580
17076,38592
17069,38584
17048,38573
17017,38512
16998,38534
17011,38519
17006,38519
16983,38500
16984,38494
16985,38510
16996,38531
16985,38523
16993,38507
16999,38514
17005,38492
16967,38493
16984,38527
16970,38482
16963,38498
16913,38465
16892,38425
16862,38376
16865,38387
16900,38452
16902,38431
16882,38416
16921,38478
16921,38478
16905,38461
16935,38464
16925,38449
16928,38468
16922,38483
16909,38471
16902,38478
16904,38443
16914,38462
16905,38434
16902,38451
16885,38446
16887,38451
16901,38465
16902,38454
16913,38458
16879,38464
16885,38436
16884,38449
16884,38428
16882,38428
16855,38409
16869,38408
16855,38406
16848,38418
16863,38406
16834,38413
16834,38403
16859,38396
16842,38409
16845,38393
16834,38413
16829,38393
16841,38392
16837,38403
16842,38384
16833,38401
16823,38379
16852,38403
16836,38381
16831,38395
16828,38402
16841,38417
16831,38380
16845,38419
16840,38401
16853,38410
16859,38396
16852,38409
16867,38432
16857,38436
16832,38385
16822,38406
16838,38413
16859,38415
16900,38468
16940,38491
16917,38459
16917,38459
16922,38492
16933,38487
16978,38560
16999,38576
17009,38588
17004,38555
17014,38580
16990,38568
16964,38530
16986,38578
16991,38581
17020,38591
17041,38616
17013,38606
17001,38589
17059,38642
17102,38707
17102,38707
17150,38748
17202,38780
17222,38814
17220,38816
17223,38809
17218,38806
17230,38827
17189,38757
17199,38799
17203,38785
17209,38788
17201,38799
17224,38786
17252,38838
17237,38829
17249,38828
17273,38856
17267,38839
17297,38883
17283,38864
17324,38892
17315,38887
17333,38918
17304,38898
17308,38895
17297,38877
17288,38861
17306,38881
17353,38921
17392,38959
17349,38947
17366,38955
17363,38934
17411,39004
17429,39039
17446,39026
17437,39047
17451,39025
17485,39061
17468,39055
17480,39048
17443,39032
17426,38980
17482,39039
17470,39025
17485,39045
17487,39045
17497,39065
17476,39049
17486,39042
17486,39042
17458,39048
17465,39027
17460,39020
17443,38998
17432,38985
17417,38977
17424,38996
17453,38993
17434,38967
17385,38936
17354,38892
17334,38882
17325,38864
17322,38874
17266,38829
17260,38796
17257,38792
17238,38788
17196,38738
17194,38754
17179,38738
17179,38726
17174,38706
17191,38708
17190,38733
17191,38722
17165,38705
17173,38722
17148,38687
17142,38684
17108,38657
17106,38636
17099,38632
17085,38631
17099,38642
17090,38627
17086,38663
17090,38638
17079,38603
17094,38648
17099,38668
17077,38646
17062,38625
17086,38632
17088,38630
17071,38636
17057,38619
17058,38614
17036,38622
17049,38607
17027,38600
17022,38588
17047,38622
17034,38615
16985,38554
16955,38550
16926,38512
16926,38512
16947,38509
16967,38540
16990,38560
16988,38586
16986,38561
16988,38598
17011,38591
17019,38624
17012,38597
17022,38595
17012,38594
17010,38611
16994,38593
17004,38606
17000,38610
17006,38586
17012,38595
17011,38586
17021,38619
17035,38619
17032,38634
17021,38580
17016,38600
17002,38594
16985,38585
16969,38594
16955,38578
16977,38577
16989,38582
16993,38577
16995,38602
16973,38586
17000,38584
16989,38605
17001,38592
17010,38589
16977,38555
17002,38598
16982,38571
16977,38582
16972,38577
16979,38584
16979,38581
16996,38602
16991,38577
17015,38622
17015,38622
17020,38606
17022,38627
17015,38644
17055,38644
17079,38665
17065,38685
17113,38713
17116,38712
17137,38758
17149,38743
17129,38750
17150,38749
17126,38719
17153,38761
17240,38845
17270,38857
17264,38851
17245,38817
17274,38851
17277,38886
17315,38897
17325,38913
17312,38913
17313,38910
17303,38889
17299,38908
17286,38875
17277,38872
17300,38872
17290,38881
17302,38898
17327,38912
17323,38895
17325,38923
17333,38887
17318,38908
17298,38879
17294,38884
17286,38894
17282,38847
17294,38864
17289,38879
17303,38895
17294,38880
17303,38896
17308,38901
17316,38911
17310,38911
17334,38922
17389,38990
17421,38988
17460,39029
17486,39047
17532,39120
17520,39100
17448,39031
17500,39082
17537,39129
17506,39092
17506,39092
17550,39107
