IR Value,Red Value
7697,10592
7697,10592
7697,10592
7715,10616
7724,10631
7734,10640
7740,10653
7736,10647
7746,10657
7738,10653
7746,10656
7749,10663
7746,10656
7754,10667
7747,10660
7751,10669
7755,10672
7750,10665
7759,10676
7762,10683
7771,10698
7772,10697
7780,10705
7768,10697
7781,10708
7776,10706
7777,10704
7784,10716
7777,10706
7787,10719
7774,10720
7793,10727
7790,10728
7800,10737
7802,10741
7813,10753
7803,10748
7811,10750
7813,10756
7806,10752
7816,10759
7811,10754
7817,10762
7820,10765
7812,10759
7824,10769
7816,10765
7822,10770
7828,10777
7833,10785
7839,10791
7848,10803
7838,10795
7847,10801
7844,10801
7842,10798
7851,10809
7841,10802
7856,10809
7851,10810
7849,10810
7858,10817
7849,10809
7858,10822
7853,10818
7860,10826
7871,10835
7860,10829
7871,10837
7870,10838
7865,10831
7874,10842
7866,10836
7875,10843
7877,10847
7871,10841
7881,10849
7871,10844
7879,10852
7882,10855
7874,10848
7886,10857
7878,10856
7884,10857
7888,10863
7880,10855
7893,10868
7897,10875
7903,10878
7898,10880
7899,10882
7903,10888
7891,10876
7909,10889
7903,10886
7903,10886
7907,10891
7901,10885
7915,10895
7909,10893
7906,10894
7913,10899
7903,10892
7915,10901
7914,10903
7916,10907
7920,10914
7931,10923
7922,10917
7929,10923
7932,10924
7926,10917
7934,10930
7929,10926
7934,10929
7935,10933
7929,10926
7941,10936
7933,10931
7939,10939
7940,10941
7935,10933
7945,10943
7949,10950
7955,10958
7956,10961
7955,10962
7962,10966
7952,10963
7963,10971
7960,10970
7957,10964
7965,10974
7956,10967
7968,10977
7964,10974
7971,10980
7975,10986
7981,10995
7976,10992
7984,10998
7976,10994
7983,10998
7985,11003
7987,11003
7990,11010
7982,11003
7992,11013
7996,11019
7999,11022
7998,11024
8000,11023
8002,11027
7991,11018
8005,11027
8001,11023
7999,11027
8003,11029
7997,11024
8011,11032
8008,11032
8002,11031
8011,11037
8003,11033
8013,11039
8010,11043
8011,11042
8015,11047
8026,11057
8015,11052
8024,11058
8025,11059
8019,11053
8027,11061
8020,11057
8026,11062
8032,11067
8021,11059
8032,11070
8028,11065
8031,11068
8034,11071
8027,11063
8035,11072
8042,11082
8043,11083
8040,11084
8042,11086
8046,11091
8036,11076
8048,11087
8045,11085
8040,11086
8045,11090
8055,11102
8045,11092
8055,11100
8053,11102
8055,11106
8063,11112
8059,11110
8068,11120
8061,11115
8069,11120
8070,11123
8062,11115
8074,11126
8068,11123
8071,11125
8073,11126
8065,11121
8077,11131
8071,11127
8074,11133
8079,11137
8082,11139
8087,11147
8076,11136
8086,11145
8083,11146
8085,11142
8090,11150
8079,11143
8090,11150
8086,11152
8086,11147
8093,11157
8083,11146
8094,11157
8091,11156
8089,11153
8091,11156
8102,11169
8096,11163
8105,11173
8104,11172
8108,11176
8106,11178
8099,11167
8111,11181
8104,11176
8110,11179
8112,11183
8102,11172
8112,11184
8107,11181
8111,11183
8114,11189
8119,11194
8123,11201
8111,11188
8119,11193
8125,11201
8124,11198
8122,11200
8131,11207
8120,11199
8128,11204
8126,11205
8124,11201
8128,11208
8126,11202
8142,11223
8143,11231
8220,11334
8260,11393
8220,11336
8192,11294
8155,11250
8116,11190
8131,11210
8167,11258
8203,11308
8167,11266
8139,11220
8153,11242
8177,11277
8187,11290
8156,11249
8164,11259
8172,11268
8185,11286
8171,11271
8173,11267
8170,11268
8176,11277
8185,11286
8170,11268
8174,11271
8176,11276
8180,11282
8185,11284
8170,11266
8182,11280
8181,11283
8184,11286
8186,11290
8181,11282
8192,11294
8185,11289
8192,11291
8191,11294
8185,11289
8193,11299
8187,11293
8190,11298
8193,11297
8186,11291
8196,11301
8198,11306
8200,11306
8197,11306
8202,11309
8206,11314
8196,11303
8204,11314
8200,11309
8201,11309
8208,11317
8198,11308
8206,11314
8203,11315
8205,11314
8204,11316
8206,11320
8215,11325
8206,11316
8214,11327
8213,11326
8209,11321
8216,11328
8208,11322
8217,11332
8216,11330
8209,11323
8218,11333
8213,11328
8218,11332
8220,11335
8211,11323
8222,11337
8224,11339
8221,11341
8225,11345
8224,11342
8230,11347
8221,11340
8232,11353
8225,11347
8225,11344
8231,11350
8223,11344
8237,11352
8228,11351
8229,11349
8230,11351
8230,11353
8240,11365
8234,11360
8238,11364
8235,11361
8233,11356
8245,11367
8233,11358
8239,11363
8241,11363
8239,11359
8248,11367
8237,11361
8243,11365
8241,11364
8236,11362
8246,11374
8241,11365
8245,11374
8253,11380
8243,11370
8249,11376
8243,11371
8248,11375
8254,11386
8243,11372
8253,11380
8248,11373
8250,11379
8256,11387
8247,11378
8256,11383
8251,11380
8253,11381
8258,11388
8248,11378
8257,11389
8253,11384
8254,11384
8257,11387
8259,11393
8266,11401
8255,11389
8266,11398
8266,11400
8260,11394
8269,11402
8261,11396
8269,11403
8270,11405
8263,11398
8271,11405
8263,11401
8270,11405
8271,11408
8274,11411
8275,11415
8267,11406
8279,11417
8273,11412
8272,11411
8277,11418
8270,11410
8283,11422
8276,11416
8275,11415
8282,11422
8272,11413
8284,11425
8279,11420
8275,11416
8283,11424
8288,11430
8278,11423
8281,11428
8290,11432
8287,11430
8287,11432
8294,11440
8285,11430
8290,11435
8290,11435
8287,11431
8294,11441
8289,11436
8290,11436
8302,11447
8295,11445
8299,11450
8304,11450
8291,11441
8304,11452
8301,11450
8301,11450
8306,11455
8296,11446
8304,11454
8303,11453
8302,11454
8308,11458
8300,11450
8307,11457
8311,11461
8312,11462
8312,11466
8310,11464
8314,11468
8306,11464
8313,11467
8314,11466
8306,11459
8313,11468
8311,11464
8320,11470
8318,11470
8307,11464
8317,11470
8313,11473
8316,11474
8318,11478
8324,11478
8326,11485
8318,11474
8326,11486
8323,11481
8324,11483
8328,11488
8318,11478
8331,11490
8327,11486
8325,11484
8330,11489
8323,11482
8332,11491
8333,11493
8334,11497
8329,11492
8337,11499
8329,11492
8336,11499
8336,11499
8331,11492
8339,11502
8332,11495
8343,11506
8335,11498
8341,11503
8342,11504
8334,11498
8336,11501
8350,11516
8341,11508
8345,11510
8350,11518
8340,11506
8349,11518
8344,11511
8346,11513
8350,11518
8340,11509
8351,11520
8346,11518
8352,11520
8348,11519
8352,11522
8357,11525
8352,11526
8359,11536
8350,11528
8356,11528
8358,11527
8354,11524
8358,11536
8350,11525
8360,11535
8362,11532
8355,11528
8365,11535
8354,11529
8362,11532
8360,11536
8355,11527
8367,11546
8369,11545
8364,11542
8366,11545
8372,11546
8363,11538
8372,11547
8367,11543
8368,11546
8374,11554
8364,11542
8373,11551
8368,11546
8370,11548
8376,11556
8368,11545
8375,11552
8372,11550
8375,11554
8377,11557
8377,11556
8384,11564
8377,11561
8384,11566
8378,11564
8385,11566
8385,11568
8380,11563
8383,11567
8393,11576
8384,11574
8390,11575
8393,11579
8386,11571
8394,11581
8390,11577
8394,11577
8394,11584
8385,11573
8396,11585
8394,11582
8397,11581
8399,11586
8388,11579
8398,11588
8395,11582
8395,11585
8399,11592
8397,11589
8406,11596
8397,11589
8406,11596
8401,11596
8399,11591
8405,11598
8397,11589
8407,11601
8403,11597
8400,11593
8409,11603
8399,11594
8411,11602
8407,11600
8406,11598
8403,11594
8419,11615
8423,11618
8413,11610
8416,11613
8424,11622
8413,11612
8421,11616
8414,11612
8425,11624
8427,11625
8408,11609
8424,11621
8422,11623
8423,11622
8423,11618
8424,11621
8417,11620
8433,11632
8423,11625
8420,11620
8432,11632
8425,11631
8428,11631
8420,11627
8427,11625
8438,11635
8425,11627
8426,11629
8428,11631
8431,11632
8437,11640
8424,11626
8431,11632
8433,11637
8428,11632
8436,11638
8432,11637
8433,11641
8439,11644
8440,11646
8433,11640
8444,11649
8437,11645
8440,11647
8443,11650
8436,11642
8447,11653
8438,11649
8441,11651
8447,11654
8438,11648
8448,11655
8444,11652
8445,11654
8445,11653
8448,11660
8457,11669
8447,11660
8457,11668
8452,11665
8450,11663
8457,11669
8450,11662
8458,11672
8456,11670
8451,11665
8462,11676
8450,11667
8454,11668
8457,11670
8458,11678
8467,11681
8465,11684
8456,11675
8468,11684
8462,11679
8469,11681
8469,11685
8460,11675
8465,11687
8475,11693
8475,11695
8480,11697
8472,11694
8472,11694
8478,11699
8473,11692
8481,11699
8474,11698
8473,11694
8483,11703
8475,11694
8483,11704
8479,11701
8477,11697
8484,11704
8474,11701
8485,11702
8485,11711
8488,11715
8483,11707
8491,11718
8482,11707
8490,11715
8492,11721
8484,11710
8492,11721
8487,11713
8491,11718
8494,11722
8487,11715
8495,11724
8486,11719
8492,11721
8497,11724
8490,11718
8489,11719
8492,11720
8502,11732
8498,11731
8498,11728
8502,11734
8493,11727
8505,11732
8499,11731
8497,11732
8504,11738
8498,11730
8508,11738
8502,11734
8499,11733
8507,11739
8498,11733
8509,11744
8510,11742
8512,11747
8517,11751
8509,11744
8517,11753
8518,11755
8512,11750
8517,11754
8518,11757
8511,11751
8521,11760
8526,11762
8525,11765
8519,11763
8521,11763
8528,11770
8515,11757
8526,11769
8523,11764
8526,11766
8530,11774
8521,11764
8529,11772
8526,11769
8524,11768
8533,11775
8523,11766
8532,11775
8530,11774
8532,11775
8531,11777
8538,11783
8531,11776
8537,11783
8538,11782
8530,11778
8541,11785
8535,11778
8540,11785
8539,11787
8531,11779
8544,11789
8535,11784
8541,11785
8542,11791
8533,11782
8545,11791
8546,11795
8549,11798
8544,11795
8545,11794
8551,11800
8539,11793
8550,11798
8549,11801
8548,11796
8551,11803
8543,11795
8553,11805
8548,11801
8548,11800
8556,11808
8546,11798
8555,11806
8553,11804
8555,11808
8553,11809
8556,11810
8563,11819
8554,11811
8561,11816
8563,11818
8557,11812
8564,11821
8559,11816
8562,11818
8565,11823
8558,11814
8567,11822
8571,11826
8566,11827
8569,11829
8567,11828
8574,11836
8565,11825
8575,11835
8572,11832
8571,11832
8576,11836
8568,11827
8577,11838
8574,11838
8571,11834
8572,11833
8576,11833
8585,11849
8575,11841
8583,11845
8581,11846
8575,11838
8586,11848
8578,11842
8581,11846
8584,11849
8578,11843
8591,11851
8580,11848
8584,11848
8587,11850
8583,11850
8583,11853
8584,11855
8596,11864
8593,11863
8591,11860
8598,11867
8587,11857
8599,11866
8598,11870
8591,11860
8601,11868
8592,11863
8599,11871
8598,11869
8594,11863
8603,11872
8597,11870
8602,11874
8604,11875
8598,11869
8606,11878
8599,11873
8604,11880
8606,11880
8600,11874
8609,11882
8603,11877
8607,11880
8607,11883
8601,11875
8612,11883
8604,11879
8609,11884
8612,11889
8602,11879
8612,11888
8608,11886
8609,11884
8612,11888
8611,11891
8617,11897
8608,11890
8619,11895
8614,11895
8614,11893
8619,11899
8610,11889
8618,11894
8617,11899
8617,11893
8621,11902
8615,11893
8626,11907
8628,11909
8630,11910
8624,11907
8627,11911
8630,11912
8621,11904
8630,11915
8627,11911
8627,11909
8631,11915
8625,11910
8631,11914
8634,11920
8632,11918
8634,11921
8631,11917
8639,11923
8630,11919
8639,11923
8637,11924
8632,11918
8641,11929
8632,11920
8640,11929
8639,11926
8634,11919
8641,11928
8637,11925
8638,11927
8649,11939
8643,11936
8647,11934
8650,11943
8639,11930
8652,11942
8639,11931
8652,11942
8653,11944
8652,11944
8649,11942
8656,11945
8648,11940
8657,11947
8655,11948
8651,11942
8660,11952
8649,11946
8657,11951
8658,11948
8651,11945
8660,11954
8651,11947
8655,11952
8657,11954
8661,11957
8664,11959
8655,11954
8663,11962
8660,11956
8660,11958
8666,11964
8657,11954
8666,11964
8661,11960
8662,11959
8665,11967
8658,11956
8667,11965
8662,11963
8662,11960
8669,11968
8659,11961
8662,11963
8670,11968
8670,11969
8666,11964
8675,11976
8665,11964
8671,11971
8673,11973
8666,11969
8677,11978
8668,11970
8677,11977
8669,11970
8674,11977
8676,11979
8680,11985
8670,11977
8680,11984
8676,11983
8677,11981
8682,11985
8674,11976
8683,11986
8679,11983
8678,11980
8684,11988
8676,11980
8685,11992
8680,11986
8677,11983
8686,11991
8685,11991
8687,11995
8682,11990
8688,11993
8688,11996
8677,11987
8689,11997
8685,11994
8688,11994
8689,11998
8680,11986
8690,11996
8686,11992
8686,11994
8691,11997
8682,11991
8693,12001
8694,11999
8691,12000
8690,12000
8698,12009
8686,11998
8695,12002
8694,12003
8691,12004
8697,12007
8686,11997
8700,12009
8690,12001
8698,12009
8700,12011
8690,12001
8693,12005
8695,12005
8705,12019
8695,12013
8698,12011
8705,12016
8698,12009
8705,12015
8697,12013
8699,12011
8695,12009
8708,12020
8698,12012
8706,12020
8710,12024
8711,12019
8710,12024
8702,12019
8709,12027
8704,12019
8712,12022
8710,12024
8702,12019
8712,12027
8708,12024
8711,12025
8711,12029
8703,12018
8712,12031
8706,12025
8711,12026
8714,12032
8718,12035
8707,12027
8717,12037
8716,12034
8712,12030
8719,12036
8711,12030
8718,12035
8711,12031
8719,12040
8717,12037
8714,12036
8721,12040
8723,12049
8717,12038
8722,12043
8724,12047
8716,12040
8726,12046
8720,12039
8724,12045
8727,12051
8716,12038
8727,12049
8721,12043
8723,12049
8726,12048
8717,12037
8729,12051
8724,12049
8725,12052
8728,12051
