IR Value,Red Value
22899,43346
22899,43359
22901,43370
22903,43374
22899,43372
22902,43364
22908,43375
22914,43385
22917,43389
22931,43390
22924,43391
22924,43387
22913,43377
22914,43370
22908,43372
22912,43373
22909,43363
22915,43368
22905,43358
22908,43357
22913,43364
22913,43364
22910,43369
22905,43360
22910,43353
22897,43357
22904,43347
22892,43347
22895,43347
22891,43341
22898,43346
22894,43335
22894,43337
22884,43330
22885,43338
22877,43321
22875,43324
22880,43318
22869,43324
22874,43309
22875,43325
22872,43314
22872,43319
22867,43311
22871,43302
22859,43312
22863,43309
22860,43290
22857,43308
22857,43304
22861,43301
22853,43303
22857,43304
22851,43303
22861,43299
22857,43298
22868,43306
22866,43307
22865,43304
22851,43289
22850,43275
22839,43269
22851,43274
22839,43263
22848,43278
22846,43266
22852,43270
22852,43270
22852,43271
22844,43257
22848,43266
22843,43259
22850,43261
22849,43261
22845,43268
22855,43273
22856,43274
22859,43290
22857,43290
22867,43295
22872,43300
22871,43305
22886,43311
22888,43318
22897,43327
22894,43322
22897,43331
22888,43303
22892,43322
22890,43308
22886,43317
22890,43312
22886,43311
22898,43312
22891,43305
22891,43318
22892,43298
22888,43326
22883,43308
22888,43307
22884,43296
22882,43306
22884,43307
22885,43310
22879,43302
22889,43302
22879,43306
22888,43307
22880,43307
22887,43310
22885,43301
22887,43312
22885,43305
22880,43306
22889,43310
22888,43308
22881,43311
22887,43313
22880,43310
22885,43321
22882,43317
22890,43329
22881,43308
22888,43317
22876,43322
22876,43322
22885,43330
22885,43327
22884,43326
22882,43335
22882,43330
22886,43332
22888,43334
22880,43330
22881,43337
22879,43327
22887,43341
22878,43337
22882,43337
22887,43345
22886,43337
22896,43360
22901,43354
22911,43367
22906,43364
22900,43354
22897,43347
22890,43345
22897,43333
22893,43346
22898,43331
22890,43338
22898,43330
22894,43339
22894,43321
22898,43326
22891,43318
22896,43326
22886,43317
22889,43319
22884,43320
22886,43314
22890,43322
22886,43311
22891,43325
22883,43309
22884,43317
22888,43311
22883,43320
22886,43317
22883,43306
22885,43316
22885,43316
22879,43318
22882,43321
22878,43307
22880,43320
22878,43313
22875,43322
22873,43317
22872,43306
22873,43315
22873,43311
22865,43317
22869,43308
22872,43310
22870,43298
22868,43313
22866,43299
22865,43311
22864,43304
22864,43306
22861,43308
22863,43311
22858,43296
22859,43302
22860,43296
22867,43315
22865,43302
22868,43307
22861,43284
22861,43283
22849,43269
22854,43270
22851,43273
22849,43259
22851,43273
22853,43259
22849,43266
22844,43247
22842,43253
22834,43237
22834,43233
22825,43236
22834,43229
22824,43223
22832,43229
22825,43222
22822,43225
22820,43213
22822,43211
22822,43221
22828,43221
22843,43225
22835,43220
22840,43211
22840,43223
22838,43215
22841,43224
22841,43224
22836,43214
22844,43238
22847,43222
22859,43239
22857,43237
22862,43251
22860,43241
22860,43255
22858,43241
22864,43256
22860,43239
22863,43246
22865,43240
22859,43254
22869,43251
22859,43254
22865,43253
22861,43245
22865,43252
22859,43249
22862,43246
22871,43256
22869,43269
22870,43255
22878,43268
22883,43271
22889,43270
22892,43283
22882,43264
22883,43269
22877,43252
22878,43255
22873,43252
22879,43251
22880,43257
22879,43254
22882,43249
22879,43243
22878,43248
22876,43238
22879,43240
22873,43236
22870,43230
22875,43239
22869,43227
22873,43236
22866,43231
22869,43230
22868,43232
22868,43235
22865,43227
22870,43230
22866,43230
22864,43229
22868,43230
22867,43246
22872,43228
22872,43228
22873,43241
22866,43238
22870,43241
22866,43239
22870,43240
22864,43242
22870,43253
22866,43244
22873,43250
22868,43250
22872,43257
22870,43250
22869,43253
22872,43262
22870,43250
22874,43265
22871,43257
22872,43274
22872,43261
22873,43274
22873,43263
22873,43270
22870,43273
22872,43273
22874,43279
22876,43285
22880,43278
22878,43287
22880,43284
22888,43285
22893,43299
22893,43301
22889,43298
22891,43289
22887,43279
22885,43277
22888,43283
22882,43277
22886,43273
22882,43284
22886,43277
22887,43269
22887,43272
22887,43260
22884,43267
22884,43263
22882,43264
22879,43249
22882,43269
22876,43260
22877,43259
22870,43255
22871,43248
22874,43267
22878,43254
22872,43265
22872,43254
22876,43262
22876,43262
22870,43254
22871,43258
22870,43251
22865,43250
22867,43259
22865,43247
22866,43265
22863,43245
22866,43260
22861,43248
22861,43250
22854,43238
22855,43256
22849,43250
22860,43252
22853,43250
22855,43258
22849,43240
22856,43254
22855,43243
22860,43246
22859,43250
22855,43251
22849,43233
22850,43227
22844,43213
22846,43218
22846,43209
22843,43208
22843,43211
22847,43216
22854,43221
22842,43206
22840,43199
22829,43184
22830,43181
22825,43173
22824,43175
22821,43169
22815,43178
22822,43175
22821,43184
22827,43184
22827,43184
22835,43188
22835,43188
22848,43201
22853,43207
22857,43220
22858,43213
22865,43226
22858,43210
22863,43212
22856,43207
22860,43219
22859,43231
22865,43223
22872,43230
22871,43217
22869,43227
22870,43229
22867,43221
22867,43227
22872,43228
22867,43232
22870,43228
22872,43224
22873,43228
22867,43229
22869,43245
22870,43238
22868,43224
22870,43231
22873,43239
22872,43235
22873,43239
22868,43237
22872,43238
22870,43233
22870,43247
22872,43239
22869,43252
22872,43238
22876,43251
22873,43256
22881,43253
22874,43253
22879,43263
22871,43259
22880,43270
22870,43259
22876,43261
22876,43264
22872,43264
22881,43273
22878,43264
22881,43286
22878,43265
22886,43278
22890,43271
22902,43295
22897,43286
22897,43286
22896,43284
22892,43268
22889,43272
22888,43263
22887,43267
22891,43259
22889,43269
22884,43268
22888,43263
22888,43262
22887,43257
22893,43262
22884,43251
22885,43266
22879,43246
22886,43258
22879,43246
22884,43251
22876,43252
22880,43254
22875,43253
22887,43253
22883,43257
22880,43250
22882,43255
22884,43271
22878,43263
22874,43255
22877,43259
22873,43257
22873,43259
22876,43266
22875,43256
22874,43269
22879,43257
22881,43270
22881,43269
22875,43259
22882,43284
22876,43272
22881,43278
22876,43276
22878,43279
22877,43278
22870,43273
22880,43287
22876,43283
22876,43283
22881,43292
22872,43285
22877,43289
22882,43277
22882,43277
22883,43235
22879,43237
22884,43248
22882,43241
22885,43247
22885,43248
22888,43259
22888,43263
22889,43261
22891,43263
22886,43265
22891,43264
22884,43265
22889,43262
22885,43268
22895,43274
22890,43275
22897,43283
22892,43277
22895,43276
22895,43276
22902,43289
22912,43288
22920,43319
22917,43298
22917,43301
22908,43284
22911,43288
22902,43270
22906,43282
22906,43283
22905,43283
22910,43289
22905,43279
22910,43271
22908,43289
22903,43262
22902,43276
22900,43271
22903,43268
22901,43268
22901,43269
22897,43270
22904,43279
22897,43262
22899,43263
22898,43268
22900,43274
22899,43262
22906,43269
22891,43273
22895,43276
22905,43286
22897,43286
22899,43274
22897,43284
22896,43282
22889,43282
22899,43280
22897,43282
22900,43286
22894,43293
22899,43291
22894,43287
22895,43287
22895,43287
22899,43287
22898,43289
22901,43296
22892,43290
22895,43290
22890,43295
22895,43292
22891,43292
22897,43295
22894,43300
22897,43298
22889,43300
22894,43294
22894,43309
22890,43292
22893,43304
22890,43304
22901,43306
22895,43298
22900,43303
22901,43301
22912,43322
22906,43312
22899,43305
22897,43297
22893,43279
22891,43290
22887,43275
22888,43273
22887,43269
22893,43272
22886,43263
22887,43265
22876,43262
22878,43262
22879,43257
22869,43231
22872,43245
22862,43240
22861,43237
22861,43225
22861,43233
22860,43223
22861,43229
22857,43234
22855,43219
22855,43232
22863,43218
22862,43222
22869,43222
22861,43212
22863,43210
22852,43194
22859,43198
22853,43196
22860,43189
22861,43207
22861,43207
22869,43206
22862,43207
22872,43214
22862,43210
22873,43217
22861,43208
22864,43206
22869,43216
22869,43203
22874,43218
22876,43217
22876,43226
22878,43224
22876,43236
22877,43240
22879,43236
22882,43229
22889,43238
22897,43247
22905,43260
22897,43247
22902,43239
22897,43246
22901,43233
22896,43234
22902,43238
22896,43239
22902,43246
22903,43233
22905,43246
22899,43228
22900,43245
22896,43230
22893,43222
22895,43238
22889,43221
22889,43228
22891,43225
22890,43225
22891,43229
22894,43230
22886,43218
22893,43227
22888,43223
22896,43227
22888,43228
22886,43234
22886,43234
22889,43223
22889,43237
22885,43231
22890,43239
22889,43234
22891,43242
22886,43239
22890,43247
22888,43237
22888,43259
22887,43253
22889,43255
22893,43256
22892,43253
22894,43257
22889,43250
22893,43254
22890,43261
22890,43261
22896,43270
22901,43276
22894,43264
22900,43277
22894,43275
22895,43276
22888,43271
22893,43279
22892,43285
22891,43278
22892,43273
22891,43283
22896,43292
22896,43288
22900,43297
22898,43303
22895,43304
22902,43297
22905,43305
22913,43303
22916,43320
22920,43321
22909,43309
22916,43307
22908,43299
22911,43304
22910,43296
22913,43309
22911,43293
22913,43307
22915,43292
22914,43299
22906,43296
22909,43300
22901,43289
22904,43292
22904,43292
22897,43279
22902,43281
22900,43274
22899,43284
22896,43278
22896,43284
22891,43273
22897,43279
22892,43272
22894,43274
22888,43274
22887,43272
22891,43277
22890,43267
22890,43279
22887,43266
22883,43265
22884,43264
22883,43274
22879,43269
22882,43269
22875,43261
22893,43247
22895,43263
22888,43252
22889,43259
22891,43248
22894,43250
22891,43260
22894,43251
22894,43265
22894,43257
22894,43263
22894,43266
22896,43264
22898,43261
22894,43270
22898,43269
22891,43266
22898,43272
22889,43266
22898,43283
22896,43270
22899,43285
22892,43274
22896,43279
22893,43284
22894,43284
22891,43288
22897,43283
22893,43300
22897,43284
22899,43297
22899,43291
22909,43298
22910,43312
22919,43306
22919,43316
22914,43296
22908,43299
22913,43293
22907,43276
22911,43293
22905,43280
22907,43282
22906,43282
22911,43278
22904,43286
22906,43269
22906,43280
22907,43267
22907,43267
22904,43279
22903,43263
22901,43274
22903,43272
22897,43265
22903,43274
22896,43267
22893,43274
22896,43262
22895,43276
22894,43269
22895,43270
22897,43279
22891,43267
22902,43271
22897,43269
22897,43274
22891,43256
22889,43265
22897,43269
22888,43261
22894,43270
22887,43265
22890,43272
22888,43266
22888,43271
22886,43268
22886,43270
22881,43256
22878,43269
22875,43266
22879,43276
22888,43270
22883,43274
22883,43258
22884,43265
22890,43265
22882,43259
22892,43264
22884,43257
22878,43256
22871,43240
22871,43238
22868,43229
22866,43232
22870,43231
22870,43231
22870,43227
22869,43230
22863,43217
22858,43209
22855,43199
22852,43191
22851,43189
22842,43191
22848,43182
22839,43182
22839,43182
22849,43181
22839,43186
22847,43186
22850,43179
22856,43194
22858,43198
22864,43197
22873,43217
22875,43214
22880,43230
22874,43214
22879,43216
22871,43215
22876,43217
22882,43215
22885,43227
22883,43222
22886,43234
22894,43229
22888,43230
22891,43228
22885,43220
22888,43229
22893,43235
22885,43218
22886,43228
22891,43235
22891,43233
22889,43243
22888,43226
22888,43233
22883,43234
22884,43235
22887,43233
22887,43239
22886,43239
22884,43240
22890,43240
22888,43235
22891,43255
22887,43240
22888,43253
22889,43250
22889,43252
22893,43250
22893,43250
22889,43256
22892,43252
22893,43252
22891,43258
22890,43257
22892,43266
22892,43266
22894,43267
22894,43262
22891,43270
22885,43269
22893,43269
22893,43283
22894,43278
22904,43281
22903,43284
22913,43295
22915,43294
22921,43302
22907,43283
22910,43280
22903,43267
22905,43277
22906,43265
22906,43280
22904,43266
22907,43276
22901,43267
22901,43271
22900,43262
22908,43261
22905,43269
22899,43255
22897,43259
22896,43243
22900,43249
22894,43247
22896,43256
22901,43258
22894,43251
22897,43247
22893,43255
22896,43255
22895,43257
22895,43254
22893,43260
22892,43258
22892,43258
22901,43264
22894,43275
22893,43255
22893,43265
22888,43264
22896,43267
22894,43264
22895,43271
22895,43269
22895,43269
22896,43271
22895,43256
22891,43270
22891,43263
22893,43269
22887,43269
22891,43268
22880,43259
22883,43263
22880,43269
22883,43264
22893,43271
22884,43271
22880,43267
22883,43263
22896,43270
22894,43265
22904,43280
22895,43274
22900,43270
22888,43252
22888,43252
22881,43237
22879,43237
22877,43241
22880,43239
22878,43244
22877,43224
22881,43236
22873,43217
22871,43222
22861,43205
22862,43206
22855,43201
22857,43211
22848,43198
22856,43194
22845,43191
22852,43189
22897,43259
22895,43269
22902,43265
22896,43265
22897,43275
22898,43262
22899,43284
22901,43272
22906,43287
22901,43285
22904,43282
22909,43289
22912,43286
22915,43300
22919,43293
22916,43286
22909,43283
22903,43275
22912,43279
22913,43270
22912,43271
22915,43278
22907,43274
22912,43272
22906,43263
22910,43267
22904,43261
22907,43264
22900,43251
22903,43265
22902,43255
22904,43261
22899,43246
22901,43252
22906,43268
22900,43259
22900,43259
22904,43264
22896,43254
22904,43264
22905,43268
22898,43255
22906,43258
22901,43263
22907,43268
22903,43261
22904,43273
22900,43279
22902,43267
22899,43262
22902,43274
22900,43272
22899,43276
22897,43269
22902,43282
22897,43277
22897,43274
22893,43276
22897,43276
22896,43282
22894,43271
22898,43280
22897,43274
22896,43269
22898,43274
22906,43279
22905,43288
22908,43291
22906,43275
22905,43264
22892,43242
22892,43255
22886,43237
22894,43251
22887,43230
22893,43245
22889,43237
22885,43244
22885,43229
22875,43219
22874,43216
22866,43212
22866,43212
22866,43207
22861,43194
22867,43206
22868,43204
22863,43196
22865,43209
22857,43193
22863,43199
22859,43196
22863,43194
22867,43194
22867,43190
22855,43184
22856,43173
22851,43170
22847,43157
22851,43164
22853,43159
22849,43166
22851,43157
22852,43162
22848,43155
22849,43161
22848,43155
22849,43155
22852,43158
22856,43157
22861,43181
22866,43180
22868,43197
22879,43196
22884,43218
22897,43233
22907,43228
22906,43232
22910,43234
22902,43227
22907,43234
22903,43224
22904,43234
22902,43224
22907,43233
22905,43227
22912,43226
22907,43229
22910,43233
22907,43227
22910,43236
22903,43229
22906,43237
22905,43230
22909,43240
22904,43227
22906,43235
22912,43239
22906,43246
22914,43244
22909,43238
22909,43238
22913,43245
22909,43244
22912,43248
22907,43248
22917,43252
22909,43252
22915,43260
22912,43249
22916,43271
22908,43264
22916,43270
22910,43268
22913,43262
22915,43274
22914,43267
22918,43276
22911,43275
22917,43280
22916,43291
22917,43286
22908,43283
22907,43291
22905,43286
22915,43301
22914,43293
22918,43301
22914,43308
22918,43311
22921,43311
22932,43309
22941,43321
22944,43333
22936,43331
22938,43335
22931,43316
22939,43316
22934,43311
22935,43324
22941,43328
22937,43321
22939,43322
22934,43325
22937,43320
22934,43314
22938,43319
22939,43316
22928,43311
22928,43311
22935,43317
22926,43316
22938,43317
22926,43319
22929,43321
22923,43315
22926,43324
22924,43318
22930,43315
22926,43316
22928,43322
22927,43315
22929,43318
22920,43333
22923,43328
22930,43311
22933,43333
22928,43331
22929,43330
22929,43331
22921,43338
22932,43338
22925,43327
22931,43343
22924,43335
22933,43346
22926,43335
22929,43344
22917,43341
22921,43336
22925,43347
22921,43333
22927,43338
22918,43341
22919,43341
22913,43337
22918,43338
22915,43338
22915,43346
22912,43342
22917,43339
22909,43343
22916,43340
22915,43350
22926,43364
22922,43348
22927,43356
22916,43331
22913,43335
22902,43322
22909,43327
22908,43321
22909,43327
22908,43329
22905,43323
22905,43323
22903,43327
22900,43318
22889,43305
22896,43303
22890,43295
22933,43406
22938,43409
22939,43413
22936,43417
22946,43420
22943,43410
22955,43428
22963,43447
22950,43418
22945,43420
22950,43421
22950,43421
22948,43412
22953,43428
22950,43421
22951,43425
22945,43409
22948,43421
22943,43403
22947,43412
22940,43401
22939,43409
22938,43406
22937,43400
22935,43406
22940,43406
22933,43398
22942,43402
22937,43398
22942,43409
22931,43399
22937,43400
22932,43395
22936,43400
22932,43392
22934,43405
22932,43397
22931,43410
22931,43399
22929,43397
22926,43403
22934,43399
22929,43395
22930,43403
22928,43389
22929,43399
22926,43388
22930,43401
22923,43390
22924,43405
22919,43393
22911,43392
22921,43389
22914,43399
22916,43394
22916,43382
22916,43389
22916,43389
22917,43393
22918,43386
22914,43373
22923,43394
22921,43393
22924,43402
22917,43380
22915,43385
22906,43373
22913,43369
22904,43368
22910,43373
22903,43362
22905,43365
22904,43360
22899,43352
22888,43352
22891,43341
22887,43339
22886,43331
22878,43322
22883,43326
22874,43309
22876,43326
22877,43313
22877,43321
22880,43317
22888,43322
22888,43320
22896,43340
22897,43336
22907,43347
22902,43343
22907,43343
22899,43339
22906,43344
22903,43336
22908,43348
22911,43337
22919,43354
22907,43350
22919,43356
22913,43343
22917,43353
22912,43342
22919,43353
22912,43348
22919,43351
22917,43344
22916,43353
22910,43351
22912,43362
22910,43348
22918,43347
22912,43359
22915,43360
22915,43360
22921,43357
22911,43351
22912,43358
22910,43349
22911,43354
22916,43354
22912,43354
22914,43364
22911,43356
22915,43370
22914,43366
22913,43366
22911,43369
22911,43369
22906,43365
22918,43370
22913,43369
22916,43381
22915,43373
22918,43382
22915,43375
22916,43376
22905,43375
22910,43379
22907,43387
22914,43387
22910,43392
22915,43387
22910,43390
22920,43393
22925,43403
22934,43411
22932,43405
22938,43416
22935,43408
22924,43392
22929,43394
22927,43390
22930,43403
22929,43391
22929,43397
22926,43384
22931,43394
22926,43376
22925,43400
22925,43400
22924,43386
22924,43386
22921,43383
22916,43371
22912,43374
22914,43373
22913,43380
22916,43376
22911,43380
22910,43380
22913,43378
22910,43367
22916,43381
22918,43380
22909,43367
22915,43386
22912,43381
22908,43373
22910,43383
22912,43382
22916,43389
22909,43380
22916,43385
22914,43385
22917,43399
22917,43384
22915,43399
22910,43386
22917,43389
22908,43384
22913,43395
22906,43393
22914,43390
22907,43389
22911,43400
22909,43387
22909,43395
22907,43386
22907,43398
22904,43382
22909,43401
22902,43393
22905,43384
22910,43393
22911,43400
22918,43403
22916,43405
22913,43404
22909,43392
22903,43386
22901,43378
22903,43383
22899,43366
22902,43379
22894,43369
22900,43359
22894,43372
22891,43358
22891,43358
22888,43356
22885,43342
22883,43341
22874,43333
22871,43333
22877,43334
22877,43340
22878,43323
22876,43340
22874,43324
22875,43325
22869,43316
22877,43325
22877,43334
22875,43320
22873,43321
22870,43302
22865,43303
22860,43287
22862,43296
22866,43302
22862,43288
22869,43296
22861,43289
22857,43290
22858,43275
22857,43276
22856,43284
22858,43279
22859,43288
22861,43282
22861,43282
22923,43379
22923,43383
22921,43368
22909,43347
22910,43356
22911,43354
22912,43356
22913,43356
22918,43356
22914,43363
22908,43353
22910,43351
22908,43348
22907,43347
22912,43350
22901,43333
22904,43341
22897,43335
22906,43343
22903,43344
22903,43347
22907,43336
22903,43345
22900,43338
22901,43352
22897,43325
22898,43337
22901,43344
22898,43333
22902,43343
22898,43334
22899,43359
22897,43339
22900,43345
22897,43338
22898,43342
22901,43344
22897,43343
22897,43346
22896,43360
22898,43353
22897,43348
22893,43347
22903,43353
22892,43339
22896,43350
22890,43340
22891,43347
22891,43347
22888,43342
22885,43349
22881,43336
22887,43331
22884,43351
22880,43336
22887,43360
22879,43340
22884,43347
22881,43338
22893,43348
22900,43358
22887,43343
22889,43335
22878,43322
22877,43314
22878,43318
22878,43306
22874,43304
22881,43318
22875,43311
22876,43315
22869,43295
22867,43294
22859,43283
22860,43280
22853,43278
22859,43290
22859,43275
22852,43276
22861,43283
22853,43284
22862,43281
22854,43276
22859,43277
22856,43279
22866,43283
22860,43283
22862,43284
22860,43282
22866,43270
22857,43267
22866,43270
22864,43267
22869,43278
22870,43285
22881,43290
22881,43290
22876,43290
22881,43288
22885,43291
22882,43296
22877,43290
22879,43289
22889,43298
22881,43297
22884,43300
22884,43300
22884,43300
22889,43306
22879,43299
22892,43308
22887,43301
22880,43293
22886,43304
22892,43310
22882,43308
22884,43295
22884,43304
22884,43294
22894,43298
22885,43309
22889,43311
22883,43300
22888,43321
22884,43313
22886,43324
22882,43310
22890,43319
22883,43320
22885,43319
22880,43313
22886,43321
22885,43322
22885,43329
22887,43330
22887,43331
22889,43324
22895,43336
22898,43332
22911,43352
22904,43348
22906,43341
22898,43333
22897,43324
22901,43327
22900,43326
22893,43323
22900,43322
22894,43317
22899,43323
22890,43316
22893,43321
22892,43306
22892,43306
22894,43316
22887,43302
22887,43305
22886,43307
22890,43302
22884,43308
22886,43300
22884,43303
22887,43299
22888,43309
22887,43309
22885,43295
22885,43305
22884,43305
22890,43307
22884,43298
22891,43308
22889,43307
22890,43321
22880,43311
22889,43311
22884,43306
22885,43311
22888,43313
22883,43310
22881,43320
22889,43322
22883,43319
22890,43327
22884,43322
22894,43330
22889,43323
22892,43324
22884,43334
22895,43341
22891,43326
22894,43342
22885,43330
22882,43328
22888,43343
22888,43336
22893,43348
22892,43339
22894,43344
22887,43340
22899,43344
22894,43341
22908,43351
22902,43352
22899,43346
22896,43336
22900,43330
22892,43323
22891,43319
22890,43323
22887,43310
22888,43316
22884,43306
22881,43308
22882,43292
22879,43292
22873,43293
22881,43284
22881,43284
22870,43284
22872,43278
22867,43271
22865,43277
22862,43270
22858,43274
22860,43274
22858,43252
22859,43268
22853,43259
22854,43261
22843,43250
22854,43259
22853,43265
22847,43255
22850,43257
22851,43248
22855,43259
22851,43246
22857,43256
22846,43241
22846,43236
22837,43223
22837,43214
22832,43202
22836,43217
22838,43209
22839,43214
22836,43202
22839,43205
22829,43191
22832,43194
22832,43194
22878,43273
22879,43266
22885,43282
22883,43272
22897,43290
22893,43284
22892,43288
22889,43267
22876,43254
22887,43261
22881,43257
22884,43258
22880,43263
22884,43244
22884,43259
22883,43249
22880,43248
22881,43242
22880,43251
22876,43243
22882,43246
22871,43241
22879,43239
22872,43246
22877,43245
22879,43245
22874,43244
22873,43235
22872,43235
22868,43230
22871,43245
22863,43233
22867,43239
22860,43226
22869,43245
22859,43231
22865,43240
22860,43230
22861,43235
22858,43239
22858,43239
22855,43243
22858,43234
22854,43241
22851,43237
22854,43232
22848,43232
22847,43228
22849,43225
22848,43237
22845,43233
22850,43240
22851,43243
22849,43234
22854,43241
22854,43235
22857,43241
22855,43233
22850,43223
22846,43214
22845,43211
22842,43206
22844,43214
22847,43216
22845,43224
22849,43210
22837,43206
22835,43204
22835,43199
22830,43196
22827,43191
22832,43196
22833,43187
22831,43194
22832,43195
22830,43196
22835,43204
22841,43203
22845,43208
22849,43223
22858,43219
22866,43241
22867,43238
22863,43242
22863,43228
22870,43234
22862,43227
22862,43227
22868,43225
22868,43230
22868,43235
22870,43231
22874,43239
22871,43241
22875,43236
22869,43237
22872,43243
22871,43236
22872,43242
22863,43234
22871,43244
22868,43246
22871,43251
22866,43244
22873,43252
22867,43239
22873,43254
22869,43256
22874,43250
22876,43245
22872,43251
22873,43259
22868,43256
22872,43264
22869,43261
22869,43262
22876,43263
22875,43267
22868,43268
22875,43273
22866,43273
22875,43280
22872,43271
22875,43280
22871,43279
22873,43288
22870,43279
22876,43293
22874,43296
22878,43287
22871,43291
22870,43291
22873,43300
22876,43294
22882,43315
22879,43297
22882,43303
22881,43304
22891,43316
22893,43307
22905,43340
22897,43330
22900,43319
22900,43319
22892,43309
22890,43314
22891,43298
22893,43309
22890,43302
22891,43316
22891,43303
22893,43308
22885,43301
22892,43306
22888,43305
22884,43294
22885,43298
22885,43288
22880,43297
22880,43285
22881,43302
22880,43287
22877,43284
22883,43295
22876,43290
22879,43295
22876,43286
22879,43293
22875,43281
22876,43293
22871,43287
22873,43284
22876,43299
22871,43276
22872,43298
22867,43283
22871,43305
22872,43287
22868,43296
22862,43283
22865,43289
22851,43281
22860,43295
22856,43278
22856,43288
22857,43289
22853,43289
22856,43283
22857,43280
22865,43289
22865,43297
22865,43284
22865,43284
22868,43290
22861,43274
22857,43269
22858,43259
22850,43256
22850,43258
22852,43261
22850,43259
22852,43255
22850,43257
22844,43237
22841,43236
22835,43240
22834,43220
22830,43234
22835,43236
22828,43221
22833,43223
22828,43224
22832,43223
22826,43221
22829,43224
22841,43232
22847,43230
22848,43236
22843,43231
22844,43237
22841,43222
22844,43236
22840,43231
22855,43246
22854,43243
22856,43249
22856,43237
22860,43253
22856,43242
22859,43257
22861,43249
22860,43243
22851,43253
22853,43245
22853,43254
22855,43245
22854,43245
22857,43255
22857,43256
22858,43261
22857,43257
22858,43256
22852,43253
22856,43265
22856,43254
22852,43252
22860,43257
22860,43270
22858,43259
22858,43259
22858,43259
22858,43259
22871,43314
22878,43328
22877,43312
22888,43339
22891,43333
22887,43323
22891,43320
22876,43315
22879,43314
22887,43318
22882,43310
22882,43310
22888,43319
22886,43305
22887,43319
22880,43298
22881,43319
22877,43295
22876,43307
22879,43298
22869,43290
22872,43298
22868,43295
22871,43290
22871,43290
22866,43291
22865,43291
22864,43290
22863,43290
22860,43283
22862,43290
22862,43286
22856,43277
22853,43276
22856,43272
22852,43284
22848,43289
22851,43271
22848,43274
22842,43268
22842,43271
22844,43262
22846,43271
22839,43270
22840,43266
22837,43262
22845,43269
22847,43270
22849,43270
22846,43274
22846,43273
22839,43242
22843,43254
22830,43235
22834,43240
22832,43232
22838,43249
22831,43229
22834,43244
22834,43244
22825,43222
22827,43222
22816,43215
22820,43218
22814,43212
22820,43220
22821,43212
22811,43212
22819,43214
22824,43219
22818,43216
22830,43217
22823,43209
22835,43229
22836,43232
22846,43248
22844,43246
22851,43241
22844,43235
22848,43236
22838,43234
22848,43238
22857,43251
22855,43238
22857,43254
22856,43241
22855,43256
22851,43246
22857,43251
22848,43247
22853,43248
22851,43247
22853,43256
22854,43253
22853,43246
22857,43257
22853,43249
22854,43254
22859,43255
22857,43259
22863,43257
22855,43253
22860,43259
22855,43247
22861,43270
22856,43255
22863,43272
22858,43260
22863,43272
22860,43260
22862,43281
22858,43271
22857,43276
22858,43273
22865,43285
22866,43278
22865,43287
22861,43280
22861,43280
22873,43286
22855,43282
22858,43279
22860,43290
22862,43294
22866,43294
22866,43292
22867,43295
22866,43293
22874,43306
22881,43307
22884,43308
22889,43320
22882,43301
22880,43301
22878,43289
22876,43296
22879,43291
22878,43295
22873,43283
22878,43301
22874,43285
22874,43286
22871,43285
22871,43278
22872,43271
22868,43270
22867,43285
22859,43264
22865,43278
22861,43274
22862,43263
22866,43270
22866,43262
22871,43271
22868,43277
22866,43273
22863,43274
22866,43282
22861,43279
22862,43273
22870,43288
22868,43264
22861,43282
22858,43275
22866,43282
22856,43278
22865,43289
22865,43289
22862,43290
22862,43287
22860,43283
22866,43291
22861,43285
22866,43291
22865,43290
22868,43305
22863,43292
22869,43294
22864,43298
22872,43302
22866,43294
22867,43306
22869,43298
22868,43314
22867,43304
22872,43317
22867,43317
22868,43317
22863,43319
22873,43313
22862,43311
22865,43315
22866,43320
22870,43326
22871,43324
22867,43327
22872,43323
22872,43319
22875,43327
22878,43328
22889,43340
22894,43347
22885,43334
22883,43315
22882,43324
22877,43310
22874,43310
22874,43305
22878,43321
22878,43308
22880,43308
22875,43309
22878,43306
22870,43304
22875,43298
22868,43284
22871,43298
22869,43287
22865,43292
22862,43281
22864,43282
22857,43272
22860,43273
22855,43281
22855,43281
22854,43280
22851,43275
22851,43272
22845,43259
22853,43277
22845,43260
22849,43274
22844,43266
22847,43270
22844,43253
22849,43259
22854,43266
22851,43264
22847,43261
22845,43250
22842,43237
22832,43227
22830,43227
22827,43216
22831,43218
22827,43209
22831,43221
22826,43209
22823,43211
22837,43184
22836,43190
22836,43188
22840,43190
22841,43193
22852,43205
22847,43198
22842,43186
22844,43180
22837,43170
22841,43176
22835,43173
22838,43183
22837,43165
22838,43162
22839,43168
22832,43151
22832,43165
22833,43153
22834,43171
22834,43163
22837,43171
22841,43170
22840,43174
22846,43182
22845,43180
22849,43190
22846,43197
22848,43190
22848,43194
22848,43208
22848,43204
22856,43214
22850,43206
22857,43217
22849,43231
22864,43218
22857,43210
22871,43233
22869,43234
22877,43242
22875,43235
22875,43226
22872,43238
22870,43227
22870,43227
22867,43235
22868,43224
22881,43233
22875,43227
22883,43235
22881,43231
22881,43236
22876,43232
22874,43234
22876,43233
22866,43219
22870,43232
22867,43230
22876,43240
22871,43230
22875,43240
22867,43230
22874,43236
22869,43228
22873,43244
22872,43248
22872,43253
22875,43243
22875,43254
22871,43245
22870,43251
22873,43252
22876,43256
22872,43258
22877,43271
22876,43256
22879,43266
22875,43256
22881,43271
22878,43272
22878,43278
22879,43274
22874,43274
22877,43285
22872,43276
22877,43293
22872,43277
22878,43296
22878,43288
22874,43283
22878,43293
22874,43291
22872,43295
22872,43295
22870,43285
22872,43297
22874,43289
22877,43300
22876,43300
22872,43293
22885,43301
22890,43312
22896,43315
22889,43315
22889,43315
22884,43311
22880,43297
22875,43296
22876,43291
22874,43294
22879,43297
22874,43292
22881,43289
22877,43291
22875,43287
22873,43282
22861,43286
22869,43279
22859,43266
22863,43278
22856,43267
22860,43275
22857,43265
22864,43277
22859,43261
22861,43279
22859,43273
22862,43274
22856,43278
22852,43276
22855,43276
22857,43278
22854,43266
22854,43275
22854,43267
22855,43277
22856,43276
22857,43289
22855,43267
22859,43276
22857,43270
22866,43292
22865,43290
22870,43286
22867,43277
22853,43271
22853,43263
22848,43255
22848,43254
22854,43264
22849,43253
22849,43253
22858,43271
22850,43250
22851,43264
22841,43252
22847,43251
22839,43239
22842,43238
22836,43234
22833,43247
22839,43239
22838,43245
22834,43249
22839,43248
22838,43261
22845,43257
22854,43270
22854,43259
22863,43281
22865,43278
22870,43288
22866,43282
22864,43281
22863,43275
22854,43271
22865,43264
22861,43271
22862,43263
22861,43278
22863,43268
22860,43270
22861,43260
22860,43274
22856,43267
22860,43270
22850,43257
22858,43272
22853,43262
22858,43262
22854,43261
22850,43269
22853,43270
22858,43272
22855,43263
22854,43277
22851,43264
22851,43264
22859,43274
22848,43270
22856,43275
22851,43272
22850,43285
22852,43280
22857,43284
22856,43285
22847,43290
22855,43294
22855,43294
22853,43299
22853,43287
22853,43300
22853,43293
22850,43289
22850,43289
22861,43302
22856,43301
22858,43300
22857,43302
22860,43311
22854,43308
22861,43305
22865,43312
22876,43333
22879,43318
22870,43313
22870,43321
22866,43305
22863,43303
22860,43310
22872,43306
22864,43302
22869,43311
22866,43288
22866,43308
22858,43289
22863,43296
22854,43281
22853,43281
22850,43287
22854,43295
22849,43273
22847,43279
22845,43273
22849,43281
22840,43276
22843,43284
22838,43280
22841,43274
22838,43286
22809,43200
22805,43195
22812,43215
22817,43210
22821,43222
22824,43220
22839,43236
22841,43241
22838,43232
22835,43223
22835,43222
22834,43222
22834,43210
22834,43226
22832,43207
22829,43215
22829,43210
22831,43212
22827,43211
22830,43207
22828,43208
22825,43201
22823,43200
22816,43214
22822,43201
22818,43204
22818,43200
22821,43204
22819,43203
22823,43208
22823,43208
22821,43203
22828,43208
22818,43211
22826,43207
22820,43210
22827,43218
22819,43217
22824,43217
22822,43221
22825,43221
22820,43210
22822,43228
22822,43221
22822,43228
22823,43225
22820,43225
22827,43233
22825,43228
22828,43243
22824,43227
22826,43245
22827,43242
22825,43238
22831,43246
22831,43244
22847,43257
22848,43260
22851,43268
22854,43257
22842,43239
22846,43250
22836,43232
22839,43237
22838,43227
22838,43240
22844,43235
22840,43241
22834,43233
22834,43222
22833,43225
22828,43214
22831,43219
22824,43214
22829,43215
22823,43213
22823,43213
22830,43208
22821,43209
22824,43214
22822,43204
22822,43211
22817,43203
22819,43228
22814,43210
22818,43201
22817,43214
22813,43199
22813,43207
22811,43202
22808,43207
22803,43200
22803,43197
22798,43191
22795,43189
22802,43195
22792,43188
22805,43193
22802,43196
22794,43194
22800,43195
22806,43197
22809,43192
22819,43207
22807,43204
22808,43192
22802,43175
22799,43174
22793,43163
22793,43158
22794,43166
22794,43152
22799,43165
22794,43157
22785,43149
22777,43141
22778,43135
22777,43122
22771,43118
22777,43126
22767,43123
22774,43126
22770,43112
22775,43129
22770,43114
22783,43134
22785,43136
22795,43155
22799,43149
22805,43162
22795,43152
22800,43153
22796,43148
22806,43161
22810,43161
22810,43161
22813,43176
22807,43170
22814,43172
22811,43169
22819,43183
22817,43164
22817,43181
22810,43165
22818,43175
22810,43166
22809,43175
22809,43172
22815,43173
22809,43177
22813,43172
22814,43184
22816,43183
22814,43185
22820,43185
22823,43201
22821,43182
22834,43199
22835,43202
22845,43213
22841,43204
22840,43190
22835,43202
22838,43189
22830,43188
22834,43187
22834,43191
22833,43183
22837,43186
22830,43185
22835,43180
22829,43169
22832,43174
22826,43164
22827,43169
22821,43157
22827,43170
22823,43169
22826,43161
22822,43161
22826,43172
22821,43159
22821,43159
22825,43169
22818,43168
22826,43171
22826,43164
22826,43177
22819,43163
22823,43169
22824,43163
22825,43178
22823,43165
22818,43169
22825,43181
22822,43178
22821,43173
22822,43189
22825,43181
22830,43187
22825,43190
22832,43198
22822,43193
22830,43200
22824,43203
22831,43210
22827,43197
22832,43210
22826,43200
22830,43208
22828,43206
22835,43223
22836,43206
22829,43219
22824,43196
22828,43219
22827,43203
22834,43226
22829,43214
22832,43222
22834,43230
22832,43221
22840,43232
22834,43222
22847,43238
22846,43228
22847,43231
22838,43212
22836,43213
22829,43208
22832,43213
22826,43198
22829,43202
22828,43183
22831,43199
22822,43182
22822,43185
22819,43176
22819,43176
22812,43163
22809,43162
22809,43162
22801,43163
22805,43161
22794,43151
22801,43152
22796,43140
22796,43148
22794,43142
22796,43146
22801,43157
22841,43168
22837,43157
22849,43159
22846,43176
22842,43164
22847,43169
22842,43169
22842,43169
22841,43176
22844,43177
22844,43177
22841,43175
22846,43173
22843,43185
22843,43175
22847,43179
22842,43185
22848,43184
22851,43189
22842,43200
22847,43195
22852,43212
22848,43199
22852,43196
22854,43209
22854,43200
22856,43208
22853,43208
22857,43215
22852,43209
22853,43216
22852,43221
22859,43225
22857,43217
22862,43232
22859,43222
22862,43220
22871,43239
22875,43243
22886,43253
22882,43247
22884,43242
22870,43232
22874,43223
22867,43227
22876,43232
22865,43221
22865,43225
22867,43215
22869,43217
22861,43211
22861,43211
22858,43206
22856,43203
22856,43204
22847,43190
22849,43195
22841,43189
22847,43190
22839,43184
22845,43188
22839,43183
22840,43183
22833,43196
22838,43186
22833,43178
22836,43176
22833,43171
22832,43176
22826,43168
22825,43164
22831,43168
22821,43173
22824,43163
22818,43154
22821,43168
22817,43154
22824,43162
22819,43165
22822,43161
22824,43163
22825,43156
22830,43173
22828,43166
22832,43175
22823,43161
22823,43148
22812,43139
22816,43131
22812,43128
22816,43139
22815,43133
22815,43143
22816,43136
22810,43131
22813,43138
22810,43126
22810,43126
22812,43135
22810,43120
22814,43136
22815,43126
22820,43149
22824,43150
22833,43158
22832,43176
22845,43184
22845,43184
22851,43191
22863,43204
22862,43203
22870,43213
22865,43199
22862,43202
22858,43188
22864,43199
22864,43192
22867,43208
22863,43193
22871,43202
22866,43200
22861,43204
22865,43199
22862,43195
22866,43195
22860,43191
22863,43181
22859,43196
22859,43192
22861,43190
22862,43204
22862,43202
22859,43191
22861,43206
22863,43198
22859,43207
22865,43205
22864,43211
22859,43202
22865,43206
22866,43212
22865,43208
22871,43219
22864,43202
22866,43227
22865,43219
22867,43232
22863,43214
22864,43232
22864,43225
22871,43228
22865,43229
22869,43230
22869,43230
22864,43234
22868,43237
22867,43237
22873,43237
22870,43242
22868,43247
22872,43244
22867,43245
22868,43244
22864,43253
22866,43250
22871,43252
22874,43256
22876,43256
22876,43266
22875,43268
22885,43276
22891,43273
22897,43275
22906,43292
22896,43276
22894,43281
22890,43272
22888,43257
22891,43271
22888,43271
22893,43265
22889,43266
22890,43266
22886,43250
22890,43263
22883,43247
22885,43260
22881,43247
22883,43252
22876,43243
22877,43244
22874,43246
22875,43230
22874,43241
22875,43240
22870,43244
22871,43233
22871,43240
22872,43242
22874,43238
22873,43236
22873,43236
22873,43239
22873,43238
22871,43233
22869,43247
22867,43236
22873,43244
22867,43239
22866,43245
22862,43233
22862,43233
22868,43247
22867,43233
22867,43243
22864,43239
22856,43236
22857,43231
22854,43226
22858,43231
22856,43230
22854,43241
22853,43232
22853,43233
22852,43238
22858,43232
22861,43239
22863,43228
22865,43249
22855,43230
22860,43222
22846,43213
22850,43200
22843,43200
22850,43205
22851,43199
22851,43205
22850,43196
22845,43203
22836,43180
22837,43186
22825,43163
22825,43168
22828,43160
22824,43173
22829,43160
22832,43171
22833,43164
22837,43187
22836,43178
22837,43179
22893,43252
22891,43259
22898,43260
22892,43256
22887,43256
22892,43262
22884,43256
22891,43243
22881,43251
22888,43245
22877,43249
22884,43236
22888,43246
22882,43234
22888,43250
22880,43238
22882,43242
22885,43248
22882,43240
22883,43250
22887,43246
22881,43246
22885,43254
22879,43240
22882,43257
22878,43237
22882,43254
22882,43254
22878,43239
22874,43251
22880,43256
22869,43249
22876,43249
22871,43251
22876,43244
22872,43240
22868,43246
22872,43247
22867,43246
22867,43244
22857,43244
22863,43240
22858,43249
22859,43238
22860,43248
22860,43247
22858,43242
22859,43247
22867,43233
22871,43247
22872,43250
22864,43245
22861,43232
22856,43228
22854,43214
22854,43222
22855,43216
22858,43222
22856,43216
22857,43226
22849,43213
22849,43207
22839,43202
22840,43198
22844,43196
22832,43187
22840,43193
22838,43193
22843,43202
22841,43197
22847,43206
22843,43196
22861,43212
22857,43222
22857,43222
22879,43236
22877,43248
22887,43251
22885,43251
22881,43249
22877,43239
22882,43244
22880,43239
22887,43257
22887,43247
22890,43262
22885,43240
22885,43247
22893,43251
22886,43254
22889,43262
22889,43254
22891,43256
22888,43255
22888,43262
22882,43262
22889,43262
22883,43261
22883,43260
22889,43265
22886,43252
22883,43268
22887,43262
22889,43266
22889,43263
22891,43261
22885,43265
22889,43261
22884,43263
22887,43282
22885,43276
22889,43279
22886,43283
22892,43282
22891,43282
22891,43277
22889,43282
22891,43290
22886,43290
22890,43287
22883,43288
22893,43287
22890,43298
22894,43301
22891,43296
22890,43303
22894,43299
22900,43313
22911,43315
22912,43322
22917,43327
22919,43315
22906,43304
22906,43304
22910,43309
22903,43296
22913,43296
22905,43305
22912,43304
22908,43301
22911,43310
22910,43303
22899,43288
22905,43301
22898,43291
22899,43290
22897,43286
22895,43280
22899,43288
22892,43281
22901,43281
22892,43287
22899,43282
22893,43288
22898,43285
22895,43293
22895,43295
22893,43284
22899,43288
22891,43294
22899,43300
22894,43289
22896,43303
22892,43287
22892,43293
22896,43301
22891,43285
22895,43297
22888,43299
22896,43300
22892,43302
22894,43300
22896,43304
22894,43299
22892,43310
22886,43295
22890,43303
22884,43292
22891,43307
22886,43294
22886,43294
22892,43302
22894,43310
22888,43305
22898,43300
22895,43311
22902,43314
22903,43317
22898,43320
22895,43297
22888,43289
22881,43271
22883,43292
22883,43276
22880,43275
22884,43275
22882,43273
22886,43268
22874,43255
22871,43256
22869,43249
22867,43255
22860,43242
22859,43245
22862,43242
22856,43238
22860,43237
22858,43228
22858,43239
22855,43220
22856,43243
22853,43222
22856,43231
22851,43216
22865,43231
22866,43234
22854,43231
22860,43225
22856,43212
22856,43207
22852,43213
22860,43219
22861,43216
22869,43234
22875,43239
22883,43248
22880,43239
22882,43248
22880,43242
22886,43252
22877,43239
22884,43258
22878,43243
22881,43252
22884,43249
22886,43257
22879,43258
22879,43258
22887,43255
22886,43254
22893,43259
22884,43254
22889,43265
22883,43250
22886,43257
22882,43256
22889,43273
22884,43263
22888,43261
22891,43266
22894,43259
22906,43308
22908,43310
22909,43298
22902,43300
22905,43297
22901,43295
22896,43283
22895,43287
22895,43288
22893,43283
22888,43280
22888,43278
22882,43277
22882,43273
22877,43273
22881,43281
22876,43267
22878,43272
22869,43255
22871,43259
22869,43268
22868,43256
22866,43258
22866,43247
22868,43259
22859,43247
22864,43255
22856,43250
22865,43254
22858,43244
22860,43253
22855,43250
22867,43258
22863,43253
22871,43263
22862,43251
22854,43240
22858,43236
22849,43216
22851,43230
22846,43225
22846,43225
22850,43233
22854,43228
22861,43233
22867,43234
22860,43236
22863,43233
22858,43227
22862,43244
22858,43236
22868,43244
22862,43249
22871,43255
22864,43255
22876,43263
22878,43253
22882,43272
22882,43282
22892,43282
22893,43290
22907,43295
22908,43299
22904,43300
22907,43292
22901,43285
22904,43291
22902,43285
22905,43285
22904,43291
22905,43283
22905,43296
22901,43284
22908,43300
22904,43290
22903,43289
22900,43272
22900,43286
22899,43277
22902,43287
22897,43281
22898,43286
22895,43291
22894,43283
22900,43280
22906,43291
22899,43287
22898,43285
22898,43285
22902,43289
22898,43291
22902,43293
22898,43284
22902,43296
22900,43296
22899,43292
22896,43294
22899,43304
22892,43294
22904,43315
22899,43311
22897,43304
22899,43313
22898,43301
22897,43313
22901,43308
22902,43310
22900,43313
22901,43323
22901,43320
22907,43319
22898,43330
22904,43332
22902,43316
22906,43325
22897,43318
22895,43332
22902,43324
22902,43336
22897,43339
22901,43347
22904,43332
22909,43344
22910,43345
22920,43352
22924,43356
22926,43361
22925,43345
22920,43353
22914,43334
22915,43339
22911,43337
22917,43339
22916,43333
22917,43343
22913,43332
22918,43332
22910,43331
22911,43329
22905,43318
22904,43326
22898,43319
22902,43325
22904,43323
22903,43321
22902,43315
22902,43315
22899,43319
22905,43321
22895,43311
22897,43323
22904,43316
22900,43316
22901,43322
22900,43317
22896,43322
22895,43323
22903,43330
22897,43327
22902,43326
22898,43318
22900,43332
22900,43321
22899,43336
22890,43329
22892,43330
22895,43317
22900,43336
22895,43328
22899,43334
22893,43328
22894,43338
22887,43327
22890,43325
22889,43321
22889,43341
22884,43319
22886,43332
22891,43335
22883,43317
22893,43336
22893,43325
22898,43343
22897,43337
22899,43344
22886,43308
22889,43313
22878,43296
22883,43299
22876,43297
22875,43297
22880,43299
22876,43290
22867,43287
22867,43287
22868,43276
22859,43266
22859,43275
22861,43273
22849,43259
22856,43262
22851,43255
22850,43260
22850,43256
22850,43256
22847,43252
22843,43258
22848,43254
22847,43253
22854,43248
22852,43247
22849,43248
22843,43231
22840,43220
22837,43221
22834,43215
22831,43214
22835,43215
22835,43216
22836,43218
22833,43210
22830,43210
22830,43211
22837,43206
22841,43213
22847,43233
22848,43235
22859,43247
22859,43256
22867,43256
22874,43268
22889,43268
22888,43289
22892,43272
22887,43283
22893,43282
22886,43268
22890,43277
22885,43270
22889,43288
22885,43274
22893,43276
22884,43269
22889,43272
22884,43268
22888,43264
22881,43264
22886,43268
22885,43275
22886,43267
22886,43275
22854,43256
22855,43261
22851,43265
22861,43270
22857,43264
22863,43270
22867,43275
22860,43268
22857,43273
22865,43258
22861,43257
22854,43249
22853,43246
22848,43253
22854,43246
22853,43246
22853,43243
22846,43229
22847,43237
22836,43222
22842,43239
22842,43225
22844,43225
22841,43230
22847,43239
22847,43241
22858,43249
22861,43263
22868,43264
22875,43274
22881,43285
22891,43308
22895,43307
22903,43315
22901,43305
22902,43307
22898,43301
22896,43291
22897,43302
22897,43303
22901,43295
22897,43301
22901,43291
22900,43303
22902,43303
22903,43304
22900,43293
22900,43293
22899,43300
22898,43299
22900,43302
22894,43297
22896,43302
22901,43297
22900,43305
22899,43298
22900,43299
22897,43306
22903,43309
22895,43311
22901,43308
22898,43305
22901,43317
22898,43307
22897,43310
22903,43320
22899,43311
22895,43315
22897,43325
22897,43315
22901,43319
22898,43320
22897,43323
22900,43328
22893,43320
22901,43327
22897,43330
22904,43334
22900,43338
22901,43335
22896,43332
22902,43345
22894,43340
22893,43335
22902,43337
22902,43345
22901,43342
22909,43355
22905,43340
22905,43349
22906,43363
22915,43363
22928,43378
22927,43366
22927,43366
22921,43369
22921,43362
22914,43360
22918,43347
22924,43353
22919,43360
22918,43348
22923,43361
22916,43341
22918,43352
22918,43352
22913,43340
22917,43354
22909,43324
22909,43339
22909,43334
22910,43340
22909,43331
22913,43335
22902,43328
22900,43334
22903,43327
22904,43331
22901,43329
22903,43332
22899,43326
22899,43342
22900,43335
22898,43329
22903,43339
22899,43336
22904,43338
22899,43334
22910,43336
22898,43336
22898,43345
22899,43339
22901,43332
22896,43345
22904,43345
22897,43343
22900,43347
22898,43345
22897,43344
22899,43357
22897,43345
22903,43352
22895,43343
22899,43357
22896,43348
22899,43346
22900,43356
22901,43362
22903,43353
22901,43363
22900,43347
22901,43366
22893,43355
22893,43355
22899,43363
22898,43355
22900,43374
22898,43353
22901,43375
22900,43359
22910,43380
22913,43380
22918,43369
22921,43391
22913,43370
22910,43380
22902,43364
22907,43354
22904,43354
22908,43353
22906,43354
22908,43357
22904,43350
22904,43345
22904,43350
22899,43351
22901,43343
22898,43337
22897,43340
22892,43330
22896,43334
22891,43328
22893,43334
22889,43329
22893,43328
22891,43330
22891,43328
22889,43327
22887,43322
22888,43330
22891,43326
22892,43321
22890,43315
22879,43321
22884,43316
22879,43320
22878,43328
22876,43321
22877,43318
22881,43318
22875,43318
22881,43320
22881,43320
22879,43315
22886,43321
22889,43316
22886,43318
22880,43302
22875,43293
22869,43281
22866,43281
22869,43291
22864,43290
22864,43290
22873,43283
22866,43290
22867,43284
22869,43272
22854,43260
22859,43262
22853,43250
22853,43256
22848,43244
22853,43258
22847,43244
22854,43244
22849,43249
22846,43245
22852,43246
22849,43240
22855,43256
22862,43247
22864,43260
22863,43246
22863,43259
22861,43243
22863,43251
22860,43233
22868,43257
22867,43248
22874,43268
22881,43263
22885,43281
22883,43271
22883,43279
22885,43284
22886,43281
22882,43272
22881,43273
22880,43260
22880,43269
22879,43241
22875,43240
22867,43240
22869,43249
22863,43239
22867,43240
22864,43242
22871,43249
22873,43258
22874,43259
22873,43250
22872,43256
22875,43256
22879,43264
22882,43255
22886,43260
22878,43252
22875,43241
22868,43229
22869,43231
22871,43233
22872,43231
22877,43226
22877,43236
22870,43215
22870,43220
22864,43208
22866,43214
22860,43212
22865,43221
22858,43212
22862,43219
22859,43215
22863,43216
22861,43218
22858,43218
22870,43226
22872,43224
22873,43223
22885,43244
22891,43246
22900,43264
22900,43264
22899,43255
22901,43265
22892,43252
22898,43262
22893,43252
22896,43255
22897,43254
22900,43264
22898,43265
22899,43265
22905,43255
22909,43263
22902,43260
22902,43269
22900,43262
22902,43267
22898,43266
22902,43264
22899,43271
22901,43265
22902,43274
22901,43263
22900,43267
22901,43270
22901,43264
22903,43271
22901,43270
22901,43275
22901,43274
22908,43276
22900,43269
22904,43290
22896,43278
22903,43288
22902,43280
22903,43290
22899,43286
22903,43296
22893,43290
22898,43286
22902,43301
22901,43295
22905,43310
22898,43289
22901,43307
22900,43285
22900,43285
22901,43306
22895,43292
22902,43317
22898,43303
22903,43319
22902,43304
22897,43307
22893,43299
22899,43309
22898,43314
22895,43310
22902,43318
22902,43318
22905,43320
22905,43321
22914,43338
22917,43338
22922,43337
22908,43334
22906,43313
22911,43313
22905,43324
22910,43319
22908,43316
22913,43321
22906,43310
22911,43309
22901,43311
22904,43308
22892,43288
22897,43299
22889,43284
22893,43291
22885,43279
22884,43291
22884,43283
22883,43284
22880,43270
22880,43281
22874,43274
22873,43281
22875,43265
22868,43262
22868,43258
22868,43257
22867,43261
22861,43255
22864,43259
22858,43260
22863,43250
22855,43250
22857,43257
22849,43246
22848,43258
22848,43226
22839,43235
22839,43235
22836,43222
22839,43229
22838,43226
22841,43246
22836,43224
22836,43238
22837,43225
22843,43233
22840,43222
22844,43242
22839,43236
22840,43237
22830,43217
22833,43210
22829,43212
22825,43200
22830,43207
22831,43204
22840,43216
22841,43212
22841,43229
22838,43213
22839,43217
22842,43225
22842,43235
22851,43238
22847,43241
22852,43247
22860,43254
22858,43246
22862,43255
22858,43254
22868,43266
22861,43267
22874,43274
22875,43276
22888,43285
22881,43277
22887,43278
22876,43277
22876,43269
22871,43261
22875,43261
22873,43263
22881,43258
22880,43262
22880,43262
22887,43263
22871,43245
22872,43249
22870,43252
22877,43255
22868,43249
22869,43248
22864,43251
22868,43244
22862,43246
22867,43246
22870,43243
22865,43231
22867,43243
22866,43255
22868,43246
22866,43238
22864,43249
22863,43246
22861,43240
22865,43251
22858,43253
22864,43252
22865,43242
22864,43258
22865,43244
22868,43254
22867,43245
22866,43260
22864,43258
22866,43260
22860,43251
22862,43266
22861,43262
22865,43271
22866,43266
22865,43266
22863,43268
22868,43273
22861,43275
22868,43270
22865,43279
22867,43277
22861,43276
22863,43277
22864,43271
22863,43278
22868,43282
22863,43285
22871,43295
22867,43283
22874,43286
22870,43289
22882,43294
22888,43295
22895,43309
22895,43309
22808,43162
22803,43160
22811,43160
22802,43159
22814,43167
22809,43163
22810,43166
22813,43174
22818,43168
22825,43186
22826,43191
22831,43191
22841,43200
22842,43206
22847,43228
22861,43225
22849,43219
22856,43219
22849,43200
22852,43208
22848,43198
22853,43206
22855,43201
22849,43195
22850,43203
22846,43193
22851,43198
22846,43198
22850,43197
22843,43194
22849,43189
22838,43189
22846,43187
22842,43192
22841,43184
22845,43181
22848,43182
22849,43195
22847,43185
22843,43189
22843,43183
22848,43185
22841,43191
22847,43197
22840,43187
22848,43192
22838,43194
22846,43187
22846,43187
22844,43203
22842,43196
22844,43200
22846,43193
22853,43201
22843,43200
22851,43202
22845,43213
22852,43204
22848,43211
22850,43219
22847,43221
22852,43220
22846,43212
22849,43212
22843,43218
22850,43227
22849,43224
22852,43225
22855,43224
22852,43220
22861,43226
22863,43228
22870,43243
22871,43241
22862,43221
22862,43219
22867,43210
22859,43203
22858,43204
22857,43197
22864,43203
22857,43194
22860,43205
22851,43202
22850,43188
22855,43192
22847,43185
22849,43186
22844,43178
22846,43175
22834,43180
22842,43171
22834,43171
22840,43180
22837,43173
22844,43178
22841,43167
22843,43184
22843,43173
22835,43165
22840,43177
22836,43169
22836,43177
22842,43174
22837,43169
22840,43187
22831,43168
22835,43188
22829,43169
22833,43179
22826,43168
22832,43182
22832,43182
22829,43181
22830,43167
22833,43176
22821,43165
22825,43181
22822,43162
22828,43175
22825,43174
22829,43177
22825,43172
22828,43171
22834,43162
22835,43181
22835,43164
22831,43164
22826,43143
22826,43144
22821,43135
22808,43135
22817,43137
22815,43128
22819,43137
22811,43115
22810,43128
22803,43097
22803,43110
22798,43099
22792,43100
22791,43089
22787,43094
22794,43082
22790,43080
22786,43096
22795,43094
22792,43082
22800,43099
22804,43100
22813,43106
22814,43113
22821,43116
22819,43116
22815,43104
22821,43101
22815,43096
22825,43113
22823,43113
22823,43113
22829,43110
22830,43110
22824,43107
22828,43103
22829,43109
22826,43103
22831,43103
22818,43107
22827,43108
22822,43108
22826,43113
22830,43109
22824,43102
22827,43111
22829,43104
22825,43104
22826,43111
22830,43112
22827,43107
22827,43117
22826,43116
22826,43104
22831,43120
22830,43110
22831,43124
22829,43114
22834,43121
22842,43130
22845,43132
22843,43121
22841,43119
22837,43101
22839,43101
22836,43095
22829,43093
22834,43096
22833,43097
22839,43093
22833,43088
22832,43082
22838,43090
22833,43082
22831,43084
22826,43071
22823,43063
22825,43073
22824,43069
22828,43070
22823,43073
22820,43071
22824,43069
22822,43072
22822,43072
22828,43079
22826,43075
22830,43077
22830,43077
22826,43085
22829,43084
22827,43087
22824,43089
22824,43087
22829,43101
22827,43088
22826,43083
22832,43096
22831,43100
22830,43103
22833,43106
22831,43105
22830,43111
22837,43119
22836,43110
22839,43120
22833,43114
22836,43122
22830,43113
22833,43117
22831,43118
22834,43120
22840,43121
22838,43121
22844,43130
22838,43122
22841,43121
22843,43129
22854,43136
22852,43129
22850,43127
22840,43118
22843,43106
22843,43106
22843,43106
22843,43103
22837,43099
22838,43108
22843,43121
22835,43113
22841,43114
22837,43120
22843,43113
22841,43131
22846,43130
22841,43119
22846,43124
22845,43125
22841,43131
22844,43130
22840,43130
22852,43147
22848,43142
22851,43152
22853,43141
22857,43144
22862,43155
22865,43155
22861,43154
22863,43154
22859,43144
22860,43148
22851,43142
22860,43139
22862,43144
22858,43130
22855,43144
22856,43137
22856,43143
22857,43139
22849,43125
22854,43132
22850,43125
22845,43133
22851,43135
22850,43132
22854,43136
22851,43131
22851,43131
22850,43144
22849,43139
22852,43137
22850,43135
22854,43146
22850,43131
22849,43139
22855,43153
22848,43135
22851,43149
22847,43141
22849,43152
22847,43152
22850,43152
22848,43156
22849,43151
22846,43166
22852,43158
22850,43159
22852,43170
22855,43175
22852,43164
22854,43169
22857,43169
22847,43169
22851,43177
22848,43171
22850,43185
22852,43182
22853,43178
22854,43184
22857,43177
22851,43178
22854,43178
22854,43180
22863,43191
22859,43189
22859,43176
22854,43158
22855,43168
22844,43155
22845,43158
22844,43139
22848,43160
22844,43148
22840,43156
22840,43156
22841,43148
22837,43139
22829,43134
22832,43129
22832,43127
22825,43123
22818,43130
22819,43111
22821,43116
22817,43118
22817,43118
22818,43121
22817,43110
22822,43108
22820,43110
22826,43117
22825,43127
22823,43103
22825,43106
22820,43100
22823,43102
22819,43118
22822,43113
22831,43113
22834,43125
22834,43136
22842,43142
22839,43139
22843,43133
22842,43144
22846,43142
22841,43135
22843,43137
22837,43138
22843,43140
22835,43146
22844,43152
22846,43134
22849,43152
22849,43143
22849,43159
22851,43158
22853,43154
22852,43160
22857,43158
22866,43164
22869,43168
22875,43177
22869,43162
22868,43165
22863,43154
22866,43160
22862,43148
22857,43147
22858,43155
22857,43155
22857,43155
22861,43162
22857,43142
22860,43147
22856,43151
22855,43150
22848,43149
22857,43149
22852,43146
22855,43144
22851,43147
22853,43147
22858,43145
22857,43155
22860,43162
22853,43142
22859,43162
22859,43146
22860,43160
22855,43156
22852,43156
22855,43163
22853,43167
22859,43172
22853,43168
22862,43178
22857,43171
22860,43179
22857,43174
22860,43184
22860,43187
22863,43189
22858,43189
22866,43189
22859,43187
22865,43203
22857,43201
22863,43202
22857,43201
22862,43201
22862,43206
22867,43209
22865,43221
22870,43226
22870,43221
22870,43217
22874,43226
22874,43226
22880,43223
22890,43248
22893,43243
22897,43256
22889,43227
22888,43235
22881,43231
22879,43224
22879,43230
22879,43230
22882,43230
22878,43229
22884,43232
22876,43223
22878,43221
22882,43224
22876,43219
22876,43220
22874,43223
22870,43218
22871,43211
22872,43215
22865,43202
22864,43204
22864,43208
22861,43199
22863,43200
22863,43211
22859,43208
22857,43201
22856,43199
22858,43201
22857,43205
22851,43206
22849,43209
22853,43195
22844,43195
22844,43194
22843,43195
22845,43203
22852,43199
22847,43194
22850,43195
22842,43190
22848,43203
22851,43197
22855,43202
22852,43199
22855,43203
22845,43189
22843,43180
22834,43174
22837,43162
22833,43172
22890,43251
22898,43246
22902,43257
22894,43241
22890,43260
22891,43239
22887,43237
22889,43226
22882,43235
22886,43228
22891,43233
22884,43223
22889,43231
22881,43213
22889,43235
22879,43220
22882,43230
22880,43214
22881,43224
22877,43214
22877,43226
22875,43222
22873,43231
22878,43222
22879,43227
22876,43226
22882,43232
22879,43235
22879,43235
22885,43231
22878,43226
22886,43239
22880,43230
22880,43245
22881,43226
22878,43244
22877,43238
22880,43244
22880,43243
22879,43240
22879,43245
22887,43255
22883,43248
22883,43261
22880,43253
22885,43263
22880,43262
22883,43271
22877,43264
22888,43268
22884,43273
22883,43276
22888,43270
22887,43278
22883,43274
22888,43284
22884,43280
22882,43286
22887,43282
22889,43286
22887,43277
22896,43291
22898,43289
22905,43311
22906,43299
22907,43303
22899,43285
22893,43294
22892,43280
22886,43275
22885,43282
22881,43283
22887,43274
22882,43268
22882,43271
22882,43271
22881,43263
22873,43246
22869,43251
22865,43242
22871,43239
22860,43235
22865,43235
22856,43234
22861,43235
22849,43236
22852,43225
22850,43230
22854,43235
22853,43227
22853,43218
22858,43225
22853,43222
22857,43232
22856,43227
22853,43217
22851,43210
22841,43204
22840,43198
22843,43196
22846,43198
22846,43209
22844,43196
22851,43209
22842,43190
22847,43200
22843,43202
22842,43198
22841,43195
22846,43187
22854,43210
22851,43211
22861,43212
22861,43223
22869,43240
22881,43245
22891,43259
22889,43255
22900,43273
22896,43268
22903,43271
22898,43257
22898,43265
22892,43265
22901,43267
22894,43259
22902,43270
22901,43261
22905,43264
22894,43261
22892,43260
22900,43267
22891,43262
22891,43262
22896,43256
22887,43258
22894,43252
22891,43258
22892,43264
22898,43258
22894,43262
22895,43263
22891,43258
22899,43262
22893,43264
22895,43273
22896,43271
22890,43276
22890,43274
22891,43264
22897,43277
22891,43286
22897,43274
22897,43278
22893,43271
22896,43291
22896,43282
22900,43290
22898,43283
22902,43297
22904,43301
22895,43295
22897,43299
22893,43288
22898,43296
22902,43300
22897,43303
22903,43311
22902,43308
22907,43317
22908,43307
22915,43314
22921,43329
22928,43328
22920,43322
22918,43320
22913,43303
22918,43317
22911,43308
22918,43314
22916,43310
22916,43310
22921,43315
22916,43311
22918,43303
22909,43298
22915,43312
22905,43300
22911,43303
22903,43293
22906,43291
22902,43298
22905,43293
22906,43289
22910,43304
22900,43295
22904,43304
22902,43289
22904,43303
22900,43290
22904,43304
22899,43292
22906,43303
22905,43296
22897,43301
22902,43298
22900,43292
22904,43297
22900,43299
22899,43294
22900,43304
22896,43298
22887,43298
22888,43292
22890,43290
22888,43284
22886,43289
22884,43282
22878,43288
22883,43280
22881,43287
22883,43283
22881,43291
22879,43288
22881,43288
22881,43281
22890,43293
22889,43286
22889,43300
22888,43289
22888,43287
22874,43263
22871,43273
22871,43263
22873,43259
22870,43251
22872,43260
22872,43260
22865,43256
22870,43252
22858,43251
22858,43226
22858,43234
22851,43216
22854,43228
22849,43226
22854,43229
22854,43225
22862,43232
22859,43236
22861,43242
22918,43312
22921,43306
22918,43310
22923,43308
22912,43300
22912,43307
22920,43311
22913,43300
22914,43306
22907,43285
22908,43291
22904,43290
22906,43291
22899,43286
22901,43292
22897,43286
22899,43290
22899,43294
22897,43277
22901,43289
22893,43276
22894,43280
22890,43287
22887,43280
22886,43285
22895,43287
22887,43279
22890,43285
22885,43280
22890,43278
22880,43263
22877,43274
22874,43256
22878,43271
22869,43254
22868,43267
22864,43255
22865,43262
22863,43256
22867,43265
22869,43261
22863,43264
22864,43259
22865,43259
22866,43254
22878,43268
22875,43259
22871,43257
22862,43245
22862,43245
22861,43237
22852,43228
22854,43231
22859,43226
22864,43234
22861,43224
22855,43239
22851,43226
22846,43216
22841,43209
22846,43205
22849,43204
22847,43208
22851,43219
22849,43208
22855,43226
22856,43226
22861,43235
22867,43236
22872,43248
22882,43263
22890,43268
22890,43264
22891,43274
22895,43257
22893,43264
22892,43256
22896,43264
22894,43250
22898,43273
22898,43269
22902,43272
22899,43260
22896,43273
22897,43261
22899,43271
22895,43260
22900,43275
22896,43257
22897,43269
22894,43252
22898,43275
22893,43270
22901,43267
22900,43262
22893,43266
22893,43266
22900,43272
22895,43273
22896,43269
22897,43270
22895,43279
22899,43272
22900,43281
22895,43277
22901,43285
22894,43275
22899,43290
22899,43290
22893,43284
22900,43288
22895,43293
22901,43295
22899,43288
22899,43299
22898,43291
22895,43298
22897,43297
22891,43297
22894,43293
22892,43299
22894,43301
22901,43313
22905,43318
22902,43312
22902,43309
22906,43317
22915,43317
22923,43323
22920,43332
22920,43332
22914,43309
22909,43306
22914,43311
22916,43293
22915,43299
22906,43300
22912,43302
22910,43304
22912,43305
22911,43303
22910,43289
22909,43287
22907,43283
22905,43286
22900,43277
22900,43281
22904,43284
22900,43282
22902,43282
22902,43272
22904,43287
22901,43284
22904,43284
22904,43284
22901,43292
22899,43279
22900,43287
22900,43275
22905,43292
22901,43286
22901,43293
22899,43282
22899,43299
22898,43291
22902,43297
22897,43291
22902,43296
22892,43295
22897,43302
22893,43300
22898,43298
22900,43314
22899,43299
22903,43303
22898,43304
22895,43304
22891,43291
22895,43302
22893,43300
22896,43306
22893,43311
22899,43303
22887,43301
22897,43307
22902,43307
22905,43316
22898,43313
22898,43310
22891,43289
22890,43286
22889,43277
22889,43288
22888,43287
22882,43276
22888,43284
22882,43272
22880,43271
22869,43261
22871,43259
22863,43245
22863,43245
22865,43246
22859,43226
22855,43240
22853,43237
22856,43237
22858,43233
22852,43222
22856,43228
22850,43225
22850,43225
22861,43239
22863,43229
22863,43237
22859,43227
22855,43222
22846,43201
22848,43197
22846,43205
22849,43204
22849,43199
22854,43214
22845,43208
22856,43208
22848,43199
22856,43214
22850,43216
22859,43218
22858,43214
22864,43228
22867,43238
22873,43233
22877,43249
22879,43241
22889,43259
22895,43271
22909,43281
22902,43272
22900,43270
22903,43269
22898,43262
22899,43255
22898,43265
22901,43270
22900,43265
22906,43260
22904,43263
22893,43263
22898,43260
22894,43262
22894,43262
22915,43322
22914,43322
22915,43321
22913,43324
22912,43320
22913,43317
22915,43320
22912,43334
22910,43319
22913,43320
22905,43324
22909,43330
22910,43336
22911,43341
22910,43349
22908,43346
22909,43344
22912,43346
22910,43346
22916,43346
22906,43331
22905,43337
22910,43339
22904,43340
22909,43334
22904,43337
22909,43345
22901,43339
22901,43339
22905,43337
22898,43329
22901,43333
22898,43331
22906,43344
22899,43337
22899,43336
22892,43333
22900,43336
22900,43336
22909,43346
22906,43342
22897,43334
22901,43330
22895,43324
22889,43310
22893,43316
22890,43313
22891,43306
22887,43313
22887,43305
22884,43299
22881,43301
22873,43292
22874,43291
22875,43289
22874,43291
22868,43271
22865,43273
22861,43262
22862,43277
22859,43266
22865,43280
22859,43268
22863,43275
22866,43271
22874,43287
22883,43298
22888,43308
22892,43313
22895,43315
22893,43318
22894,43302
22898,43307
22896,43306
22900,43317
22899,43324
22899,43324
22900,43322
22907,43331
22903,43328
22902,43326
22901,43327
22900,43326
22903,43332
22909,43326
22909,43335
22908,43327
22900,43330
22906,43329
22911,43321
22903,43323
22909,43331
22900,43329
22905,43343
22908,43334
22907,43331
22908,43336
22900,43337
22902,43340
22906,43350
22908,43344
22908,43344
22907,43339
22909,43353
22903,43346
22904,43360
22905,43342
22901,43353
22903,43352
22903,43351
22906,43356
22910,43361
22906,43353
22903,43359
22909,43362
22905,43360
22910,43365
22905,43359
22913,43369
22902,43371
22911,43382
22907,43367
22912,43370
22912,43373
22921,43385
22924,43393
22925,43391
22921,43386
22922,43376
22923,43371
22924,43382
22922,43379
22923,43385
22921,43369
22921,43369
22922,43382
22918,43362
22916,43370
22920,43372
22921,43367
22922,43369
22911,43362
22914,43367
22910,43358
22910,43363
22915,43357
22905,43356
22911,43364
22910,43366
22907,43357
22913,43366
22905,43356
22911,43368
22905,43366
22907,43366
22903,43359
22906,43363
22907,43365
22904,43368
22903,43369
22900,43367
22905,43368
22906,43377
22905,43367
22904,43376
22903,43368
22905,43379
22907,43371
22905,43379
22906,43379
22905,43372
22908,43378
22903,43382
22904,43372
22908,43382
22903,43374
22892,43373
22896,43376
22894,43382
22901,43383
22901,43383
22897,43378
22901,43384
22894,43371
22900,43376
22893,43383
22907,43390
22903,43390
22909,43378
22906,43375
22897,43363
22902,43361
22895,43363
22889,43352
22892,43343
22895,43348
22886,43341
22884,43346
22878,43334
22877,43330
22873,43327
22873,43315
22873,43313
22870,43316
22866,43305
22865,43310
22865,43304
22867,43310
22860,43305
22865,43306
22855,43290
22860,43298
22858,43290
22863,43292
22868,43308
22863,43289
22861,43294
22853,43264
22856,43274
22847,43258
22852,43271
22852,43264
22857,43266
22858,43279
22859,43271
22863,43279
22860,43279
22869,43279
22867,43273
22870,43285
22865,43282
22870,43282
22864,43286
22871,43293
22873,43292
22881,43300
22875,43307
22881,43308
22881,43290
22881,43290
22885,43305
22891,43313
22904,43325
22894,43313
22899,43316
22890,43300
22893,43303
22890,43302
22886,43300
22891,43296
22883,43336
22893,43348
22886,43344
22895,43343
22893,43340
22895,43338
22903,43351
22905,43359
22913,43366
22907,43357
22899,43348
22902,43349
22901,43340
22903,43344
22900,43336
22900,43350
22900,43333
22899,43345
22899,43348
22896,43338
22895,43343
22902,43334
22892,43326
22895,43337
22892,43324
22890,43330
22895,43329
22892,43338
22888,43337
22891,43340
22886,43327
22893,43344
22892,43328
22889,43342
22886,43334
22887,43339
22883,43333
22886,43337
22887,43338
22889,43339
22887,43333
22888,43341
22887,43340
22891,43350
22889,43343
22893,43354
22886,43353
22889,43355
22888,43349
22892,43353
22884,43355
22882,43354
22884,43351
22884,43351
22884,43355
22883,43356
22892,43364
22889,43351
22892,43361
22887,43354
22893,43360
22892,43358
22899,43372
22894,43363
22898,43368
22890,43355
22890,43352
22882,43347
22881,43340
22874,43336
22879,43338
22880,43334
22883,43340
22875,43324
22880,43326
22877,43319
22871,43317
22863,43310
22861,43305
22863,43302
22858,43292
22856,43295
22851,43290
22847,43282
22850,43283
22846,43282
22846,43283
22843,43282
22844,43281
22845,43272
22852,43283
22852,43277
22846,43272
22838,43251
22832,43246
22828,43250
22829,43236
22833,43242
22829,43234
22836,43241
22836,43241
22833,43239
22827,43231
22825,43233
22828,43233
22823,43227
22831,43225
22829,43231
22830,43235
22834,43248
22838,43250
22838,43250
22839,43261
22848,43264
22852,43268
22860,43283
22868,43272
22872,43285
22869,43267
22868,43268
22866,43265
22866,43269
22863,43261
22866,43276
22864,43263
22868,43280
22864,43262
22868,43267
22862,43261
22867,43272
22862,43256
22866,43264
22861,43259
22859,43260
22859,43258
22859,43262
22861,43267
22859,43262
22863,43267
22859,43264
22865,43265
22857,43271
22866,43269
22861,43264
22865,43268
22863,43266
22863,43279
22859,43271
22860,43287
22860,43270
22865,43284
22860,43268
22866,43284
22866,43283
22857,43284
22865,43289
22861,43288
22861,43288
22864,43292
22861,43293
22865,43291
22862,43299
22864,43297
22860,43291
22862,43300
22860,43286
22863,43313
22859,43300
22861,43314
22861,43303
22873,43312
22878,43320
22874,43307
22887,43333
22884,43320
22892,43336
22878,43319
22882,43313
22878,43303
22881,43315
22876,43304
22879,43304
22880,43294
22883,43305
22873,43292
22877,43298
22870,43291
22874,43299
22865,43281
22867,43281
22860,43288
22866,43280
22865,43276
22868,43285
22861,43273
22864,43279
22861,43275
22860,43286
22861,43270
22860,43279
22858,43279
22858,43276
22858,43276
22857,43273
22857,43273
22860,43271
22861,43284
22861,43269
22859,43282
22853,43273
22860,43282
22853,43280
22851,43271
22848,43278
22849,43275
22849,43275
22844,43282
22839,43268
22840,43270
22842,43264
22840,43274
22843,43278
22840,43264
22844,43274
22842,43267
22849,43274
22851,43270
22859,43279
22850,43280
22849,43266
22847,43256
22833,43239
22839,43238
22835,43233
22838,43242
22835,43233
22842,43232
22833,43238
22831,43224
22824,43217
22817,43207
22822,43207
22814,43193
22814,43207
22809,43188
22810,43196
22808,43188
22809,43186
22808,43193
22805,43173
22809,43181
22859,43218
22867,43216
22857,43203
22861,43209
22857,43199
22850,43207
22847,43187
22850,43196
22849,43185
22851,43203
22845,43189
22847,43199
22846,43193
22849,43194
22855,43201
22845,43197
22852,43197
22853,43200
22846,43188
22850,43202
22852,43210
22845,43203
22852,43211
22847,43201
22854,43213
22854,43203
22848,43207
22852,43210
22852,43212
22855,43216
22847,43211
22852,43224
22847,43230
22856,43223
22850,43222
22849,43222
22850,43224
22852,43239
22851,43223
22856,43236
22849,43233
22852,43230
22850,43237
22855,43246
22854,43249
22857,43245
22860,43251
22858,43245
22865,43242
22870,43261
22870,43261
22879,43259
22887,43271
22876,43258
22873,43252
22870,43250
22870,43244
22869,43237
22868,43233
22872,43245
22866,43248
22867,43233
22867,43231
22861,43229
22867,43227
22860,43226
22861,43226
22855,43212
22847,43214
22850,43216
22851,43216
22854,43214
22842,43203
22845,43214
22842,43204
22845,43208
22840,43202
22841,43197
22844,43194
22836,43192
22839,43203
22832,43191
22829,43192
22828,43191
22827,43189
22820,43180
22822,43183
22820,43180
22825,43182
22816,43189
22826,43189
22821,43176
22826,43181
22825,43170
22828,43187
22829,43173
22827,43184
22827,43184
22820,43162
22817,43167
22807,43151
22810,43134
22812,43146
22806,43130
22811,43144
22812,43138
22810,43142
22811,43142
22810,43139
22808,43138
22816,43144
22815,43143
22813,43145
22823,43152
22820,43159
22821,43166
22828,43162
22839,43180
22838,43184
22845,43186
22853,43206
22848,43196
22863,43209
22856,43209
22860,43205
22849,43188
22859,43194
22853,43181
22861,43185
22857,43191
22864,43201
22856,43190
22862,43194
22855,43187
22857,43187
22855,43182
22858,43195
22855,43179
22853,43183
22852,43183
22858,43199
22851,43186
22857,43196
22848,43192
22853,43193
22853,43191
22861,43199
22854,43192
22860,43194
22858,43203
22858,43206
22859,43199
22856,43199
22855,43197
22855,43197
22860,43216
22855,43208
22860,43213
22858,43202
22861,43218
22858,43210
22860,43211
22856,43217
22863,43225
22856,43217
22862,43225
22857,43221
22866,43240
22858,43228
22866,43238
22860,43230
22861,43233
22858,43232
22867,43240
22858,43238
22865,43242
22862,43252
22867,43251
22868,43251
22868,43252
22878,43253
22879,43259
22892,43272
22892,43272
22891,43273
22886,43257
22879,43255
22876,43249
22883,43243
22875,43231
22879,43237
22876,43239
22879,43239
22877,43236
22879,43236
22877,43231
22870,43236
22866,43222
22866,43225
22860,43213
22869,43219
22858,43208
22858,43208
22861,43216
22851,43209
22853,43210
22853,43212
22853,43209
22855,43211
22848,43205
22847,43196
22848,43202
22840,43203
22840,43196
22841,43198
22843,43197
22837,43190
22841,43190
22835,43183
22839,43202
22837,43189
22838,43190
22834,43192
22846,43193
22843,43192
22834,43190
22843,43195
22837,43193
22833,43177
22827,43167
22825,43154
22829,43149
22824,43154
22828,43153
22825,43151
22822,43154
22825,43142
22816,43140
22817,43135
22805,43124
22809,43132
22817,43131
22811,43129
22815,43134
22815,43143
22822,43142
22831,43160
22841,43162
22846,43170
22857,43184
22864,43200
22893,43235
22892,43239
22886,43231
22891,43247
22893,43241
22883,43229
22888,43222
22887,43237
22884,43234
22882,43238
22882,43231
22877,43222
22876,43233
22877,43224
22879,43233
22877,43228
22876,43227
22873,43227
22872,43230
22870,43220
22871,43222
22867,43227
22873,43226
22862,43220
22871,43226
22863,43215
22867,43223
22863,43214
22858,43212
22858,43215
22856,43209
22851,43214
22847,43202
22848,43203
22847,43209
22845,43205
22850,43213
22850,43221
22850,43216
22851,43216
22856,43217
22856,43217
22860,43223
22852,43219
22851,43202
22854,43193
22841,43186
22841,43186
22849,43193
22841,43190
22845,43184
22847,43186
22852,43198
22844,43189
22853,43188
22845,43180
22848,43179
22846,43186
22855,43196
22851,43214
22864,43210
22866,43203
22873,43220
22872,43229
22876,43239
22882,43232
22891,43249
22895,43252
22894,43263
22904,43266
22904,43261
22901,43247
22903,43249
22893,43248
22902,43248
22895,43246
22900,43247
22900,43241
22904,43254
22897,43240
22895,43253
22896,43235
22893,43241
22903,43241
22894,43235
22897,43247
22892,43243
22897,43245
22893,43230
22895,43255
22891,43236
22893,43247
22893,43247
22890,43244
22896,43257
22892,43246
22896,43248
22892,43240
22898,43254
22892,43253
22895,43250
22895,43257
22897,43267
22898,43254
22892,43260
22899,43275
22890,43255
22896,43267
22895,43269
22898,43266
22896,43273
22894,43272
22895,43269
22901,43281
22899,43282
22891,43279
22900,43283
22888,43268
22895,43275
22892,43281
22897,43288
22902,43292
22893,43288
22902,43295
22895,43286
22906,43296
22906,43296
22922,43314
22918,43312
22920,43304
22914,43307
22914,43301
22912,43311
22913,43290
22918,43304
22910,43291
22916,43303
22912,43280
22914,43301
22907,43284
22912,43289
22906,43283
22911,43298
22902,43271
22907,43280
22902,43273
22909,43279
22899,43268
22903,43281
22900,43272
22903,43289
22903,43289
22898,43269
22902,43278
22898,43270
22896,43270
22902,43275
22896,43276
22902,43276
22899,43269
22897,43279
22893,43277
22891,43274
22888,43266
22891,43265
22892,43275
22886,43268
22888,43264
22886,43262
22882,43268
22882,43259
22881,43266
22887,43268
22890,43276
22884,43272
22886,43275
22880,43266
22889,43269
22893,43269
22891,43270
22886,43261
22884,43259
22875,43244
22873,43253
22869,43235
22871,43238
22874,43229
22876,43233
22870,43235
22868,43228
22865,43224
22860,43209
22858,43211
22860,43215
22851,43195
22855,43213
22849,43192
22846,43196
22850,43204
22850,43204
22849,43194
22847,43200
22848,43193
22851,43200
22857,43195
22863,43209
22861,43199
22869,43219
22866,43211
22873,43209
22863,43204
22870,43214
22885,43230
22884,43226
22889,43230
22891,43241
22890,43235
22895,43239
22889,43236
22897,43238
22894,43228
22895,43248
22884,43233
22892,43238
22889,43236
22887,43245
22892,43241
22889,43242
22890,43246
22892,43243
22892,43250
22899,43250
22894,43248
22898,43255
22894,43251
22900,43256
22892,43255
22900,43261
22896,43258
22892,43260
22895,43257
22897,43260
22892,43257
22895,43272
22898,43261
22895,43269
22897,43263
22892,43266
22897,43274
22894,43274
22895,43276
22916,43309
22917,43320
22917,43315
22925,43321
22924,43330
22922,43318
22920,43319
22911,43305
22912,43295
22916,43304
22916,43298
22915,43291
22917,43304
22915,43296
22915,43299
22910,43287
22908,43291
22903,43282
22902,43280
22901,43273
22901,43275
22901,43275
22896,43273
22900,43277
22893,43276
22891,43267
22887,43268
22887,43263
22880,43261
22881,43259
22880,43255
22885,43256
22881,43257
22879,43252
22880,43253
22877,43249
22887,43250
22884,43249
22883,43247
22880,43253
22877,43232
22874,43219
22868,43216
22865,43214
22864,43214
22869,43211
22866,43211
22867,43210
22861,43209
22857,43198
22848,43201
22851,43194
22849,43183
22851,43181
22845,43172
22850,43182
22846,43173
22853,43188
22848,43179
22856,43199
22858,43184
22869,43197
22870,43201
22877,43208
22879,43207
22881,43203
22877,43207
22877,43207
22885,43210
22880,43201
22888,43223
22886,43217
22892,43228
22894,43216
22896,43230
22893,43219
22898,43228
22892,43219
22897,43236
22887,43225
22890,43230
22890,43233
22894,43236
22903,43235
22904,43246
22906,43228
22912,43261
22918,43248
22919,43258
22922,43257
22916,43243
22911,43240
22916,43243
22911,43245
22915,43238
22914,43237
22912,43228
22914,43241
22915,43240
22911,43230
22912,43240
22910,43223
22916,43230
22904,43222
22907,43216
22904,43219
22906,43228
22908,43225
22906,43224
22915,43229
22905,43227
22913,43233
22909,43228
22913,43236
22904,43234
22913,43239
22910,43241
22914,43237
22907,43232
22910,43248
22908,43233
22905,43237
22901,43247
22907,43244
22906,43246
22906,43246
22912,43246
22904,43254
22905,43243
22906,43249
22905,43250
22913,43265
22906,43248
22909,43265
22908,43258
22908,43266
22902,43251
22909,43263
22902,43269
22906,43269
22914,43293
22919,43280
22921,43284
22925,43290
22935,43294
22943,43304
22935,43300
22936,43293
22934,43301
22927,43282
22933,43296
22929,43288
22932,43278
22926,43287
22928,43285
22924,43291
22930,43288
22921,43283
22930,43276
22917,43270
22912,43276
22914,43264
22918,43273
22909,43261
22909,43263
22906,43265
22907,43258
22905,43261
22903,43248
22903,43251
22900,43249
22897,43249
22897,43249
22894,43247
22890,43250
22889,43241
22892,43242
22885,43238
22891,43243
22887,43237
22888,43249
22882,43236
22884,43246
22876,43231
22873,43233
22875,43232
22873,43227
22878,43237
22875,43240
22876,43237
22872,43229
22881,43237
22885,43250
22883,43241
22886,43248
22879,43232
22877,43222
22869,43211
22864,43205
22865,43213
22869,43199
22875,43227
22872,43218
22873,43221
22878,43222
22872,43213
22870,43209
22874,43216
22877,43234
22879,43223
22884,43237
22883,43241
22892,43257
22894,43260
22903,43265
22906,43270
22903,43270
22909,43270
22914,43275
22923,43290
22926,43291
22935,43305
22929,43291
22931,43281
22921,43280
22925,43282
22922,43284
22930,43283
22929,43283
22929,43283
22928,43293
22928,43283
22928,43291
22922,43278
22927,43286
22921,43272
22919,43282
22914,43267
22921,43279
22914,43275
22923,43290
22920,43284
22919,43274
22925,43282
22919,43276
22919,43288
22913,43273
22916,43283
22909,43279
22915,43280
22915,43277
22875,43274
22867,43260
22866,43266
22872,43260
22874,43266
22875,43276
22872,43266
22876,43260
22877,43272
22876,43272
22880,43270
22875,43259
22872,43251
22863,43244
22867,43237
22855,43235
22861,43232
22857,43228
22863,43226
22861,43230
22857,43224
22852,43218
22853,43216
22853,43209
22851,43213
22851,43218
22854,43218
22862,43226
22860,43236
22869,43247
22869,43237
22877,43249
22878,43258
22881,43274
22889,43263
22902,43289
22907,43291
22907,43287
22909,43287
22900,43277
22903,43277
22897,43274
22901,43274
22903,43271
22904,43279
22901,43277
22906,43281
22899,43266
22899,43273
22894,43270
22900,43266
22894,43271
22899,43273
22899,43273
22893,43270
22901,43271
22891,43261
22898,43278
22899,43272
22903,43264
22893,43263
22893,43271
22892,43272
22896,43277
22897,43276
22897,43273
22891,43271
22893,43271
22894,43277
22902,43280
22896,43274
22898,43280
22893,43283
22902,43282
22898,43287
22896,43280
22896,43293
22897,43276
22895,43299
22891,43290
22900,43299
22895,43294
22899,43297
22895,43307
22900,43303
22888,43280
22892,43304
22897,43300
22896,43300
22893,43301
22901,43301
22896,43310
22899,43312
22902,43312
22909,43312
22919,43325
22921,43324
22918,43319
22912,43306
22912,43308
22912,43308
22906,43300
22906,43312
22905,43300
22909,43305
22901,43306
22905,43303
22902,43301
22907,43294
22907,43294
22901,43296
22896,43289
22892,43287
22896,43294
22893,43289
22896,43292
22895,43292
22899,43291
22891,43276
22894,43294
22889,43282
22895,43299
22891,43287
22890,43285
22886,43290
22890,43294
22888,43284
22890,43289
22888,43279
22892,43295
22891,43291
22890,43290
22891,43286
22888,43291
22895,43308
22888,43293
22898,43301
22890,43287
22895,43300
22890,43305
22896,43303
22885,43307
22886,43297
22885,43301
22885,43313
22879,43302
22887,43306
22886,43310
22892,43313
22886,43302
22892,43307
22895,43302
22901,43317
22894,43307
22897,43308
22897,43308
22889,43293
22891,43283
22882,43283
22887,43282
22879,43277
22885,43281
22885,43284
22875,43272
22872,43265
22867,43259
22865,43250
22866,43252
22855,43247
22859,43237
22850,43228
22853,43242
22845,43226
22849,43230
22839,43215
22842,43222
22849,43227
22844,43221
22849,43212
22840,43212
22854,43211
22846,43211
22849,43218
22844,43203
22844,43200
22832,43180
22832,43180
22827,43170
22830,43189
22831,43169
22832,43189
22835,43185
22837,43190
22833,43172
22828,43174
22831,43175
22830,43180
22835,43184
22838,43194
22843,43196
22844,43209
22852,43208
22852,43208
22855,43216
22867,43224
22867,43234
22881,43243
22871,43237
22884,43241
22881,43230
22879,43218
22878,43216
22878,43224
22878,43224
22874,43221
22882,43230
22876,43215
22882,43225
22871,43216
22875,43218
22870,43218
22873,43213
22874,43220
22873,43214
22874,43221
22879,43214
22869,43202
22873,43224
22867,43205
22875,43228
22872,43208
22873,43218
22868,43218
22872,43230
22868,43222
22872,43223
22870,43221
22871,43233
22871,43229
22870,43232
22871,43227
22871,43233
22872,43239
22871,43236
22871,43226
22875,43232
22875,43230
22874,43237
22873,43238
22866,43242
22875,43247
22875,43247
22875,43247
22855,43248
22860,43251
22858,43245
22856,43246
22860,43259
22859,43238
22857,43242
22860,43247
22863,43247
22865,43244
22857,43224
22853,43234
22848,43218
22845,43219
22844,43224
22850,43219
22852,43221
22846,43213
22847,43212
22837,43191
22838,43199
22825,43187
22828,43178
22823,43181
22827,43185
22827,43185
22821,43183
22831,43195
22828,43186
22833,43187
22824,43174
22834,43185
22846,43198
22845,43204
22861,43219
22860,43211
22862,43218
22855,43218
22863,43214
22857,43220
22858,43205
22863,43218
22865,43224
22866,43218
22866,43222
22869,43226
22869,43224
22870,43229
22866,43216
22868,43228
22866,43222
22864,43225
22866,43226
22870,43219
22865,43228
22866,43223
22871,43231
22871,43221
22873,43233
22868,43234
22872,43240
22862,43230
22867,43231
22866,43234
22866,43234
22871,43237
22871,43245
22868,43239
22872,43248
22877,43246
22880,43241
22880,43241
22889,43255
22888,43258
22891,43256
22887,43249
22881,43250
22880,43237
22881,43240
22880,43232
22881,43235
22885,43246
22881,43244
22880,43230
22888,43237
22879,43229
22879,43238
22872,43224
22873,43220
22870,43226
22873,43220
22873,43227
22868,43217
22873,43225
22869,43222
22875,43228
22871,43216
22868,43232
22872,43214
22867,43228
22872,43216
22872,43232
22868,43221
22872,43244
22865,43222
22870,43237
22868,43233
22866,43233
22870,43237
22868,43237
22873,43241
22869,43241
22865,43235
22871,43252
22868,43249
22871,43253
22873,43253
22874,43259
22869,43262
22875,43262
22872,43261
22875,43271
22868,43256
22873,43260
22873,43263
22879,43277
22872,43275
22886,43276
22878,43273
22878,43273
22879,43276
22886,43282
22892,43292
22893,43293
22900,43299
22893,43290
22892,43281
22880,43266
22887,43284
22883,43268
22889,43272
22884,43270
22887,43274
22880,43274
22888,43276
22883,43269
22878,43261
22882,43266
22874,43253
22876,43257
22873,43248
22872,43252
22872,43257
22869,43255
22869,43245
22863,43246
22863,43251
22861,43256
22859,43237
22861,43253
22853,43241
22856,43243
22851,43242
22853,43239
22852,43229
22855,43233
22847,43245
22845,43227
22840,43229
22841,43222
22839,43225
22839,43227
22834,43234
22840,43233
22838,43226
22838,43232
22840,43225
22840,43225
22847,43222
22846,43230
22842,43225
22836,43222
22831,43209
22829,43209
22831,43186
22833,43192
22834,43189
22841,43203
22832,43203
22839,43206
22831,43196
22832,43204
22839,43213
22844,43217
22842,43200
22847,43222
22849,43223
22857,43225
22854,43233
22862,43246
22855,43249
22868,43255
22863,43256
22868,43252
22879,43262
22880,43269
22885,43264
22881,43270
22878,43256
22883,43254
22877,43240
22882,43247
22881,43242
22881,43257
22883,43246
22882,43260
22882,43245
22879,43241
22879,43252
22872,43239
22879,43252
22878,43236
22874,43231
22874,43240
22875,43238
22870,43239
22871,43238
22867,43237
22876,43243
22867,43244
22872,43251
22870,43247
22870,43250
22870,43250
22866,43252
22875,43262
22870,43252
22873,43252
22871,43256
22876,43250
22866,43252
22872,43254
22871,43259
22871,43264
22867,43257
22868,43268
22870,43265
22873,43271
22873,43266
22841,43235
22851,43250
22843,43253
22855,43248
22850,43250
22841,43237
22836,43224
22833,43214
22829,43218
22835,43226
22838,43224
22842,43216
22834,43221
22834,43206
22827,43202
22823,43194
22818,43193
22818,43181
22811,43181
22814,43182
22820,43178
22811,43180
22824,43184
22817,43192
22823,43183
22826,43187
22834,43196
22839,43207
22855,43226
22854,43225
22860,43232
22856,43226
22856,43226
22853,43221
22858,43231
22856,43227
22856,43225
22865,43239
22858,43235
22862,43238
22857,43233
22860,43229
22860,43234
22862,43238
22858,43237
22860,43225
22858,43236
22863,43231
22863,43240
22860,43225
22868,43249
22864,43234
22864,43232
22861,43237
22861,43237
22865,43244
22859,43241
22862,43240
22861,43253
22863,43248
22866,43254
22859,43241
22862,43244
22859,43256
22866,43253
22867,43258
22858,43256
22861,43254
22864,43261
22863,43257
22866,43271
22866,43261
22875,43276
22872,43271
22875,43274
22873,43264
22879,43276
22892,43288
22886,43290
22893,43285
22877,43279
22879,43275
22882,43262
22885,43270
22877,43271
22878,43264
22873,43271
22881,43267
22874,43266
22877,43250
22879,43256
22874,43270
22870,43253
22867,43250
22871,43255
22869,43253
22872,43269
22868,43249
22867,43247
22870,43255
22867,43255
22871,43264
22871,43255
22871,43266
22868,43263
22869,43264
22872,43267
22869,43261
22871,43270
22871,43268
22865,43263
22872,43271
22872,43271
22864,43268
22870,43271
22874,43267
22872,43282
22871,43270
22873,43286
22870,43270
22867,43285
22860,43272
22864,43283
22862,43270
22870,43277
22861,43287
22864,43286
22863,43298
22863,43280
22867,43294
22869,43294
22877,43294
22880,43300
22875,43280
22868,43287
22861,43267
22857,43268
22863,43268
22861,43262
22864,43262
22861,43262
22863,43266
22858,43266
22855,43252
22846,43248
22849,43252
22845,43237
22845,43243
22841,43235
22834,43233
22839,43228
22831,43228
22836,43230
22843,43225
22841,43228
22837,43229
22836,43217
22836,43217
22839,43227
22842,43223
22837,43233
22837,43219
22829,43214
22828,43200
22824,43204
22825,43203
22816,43187
22826,43200
22818,43196
22830,43210
22824,43200
22829,43203
22823,43192
22824,43195
22820,43197
22827,43206
22825,43209
22840,43227
22840,43231
22852,43245
22856,43252
22865,43251
22871,43255
22879,43280
22881,43272
22888,43288
22881,43280
22887,43278
22878,43268
22884,43272
22878,43273
22882,43271
22879,43274
22888,43275
22882,43276
22887,43273
22880,43267
22886,43275
22876,43268
22880,43277
22880,43267
22881,43280
22879,43258
22879,43264
22875,43276
22877,43270
22873,43275
22880,43272
22881,43274
22878,43282
22877,43281
22880,43273
22885,43275
22876,43278
22883,43278
22876,43280
22886,43285
22878,43283
22878,43283
22882,43291
22879,43279
22882,43296
22876,43285
22881,43298
22877,43287
22879,43303
22880,43292
22889,43307
22880,43298
22878,43298
22880,43302
22872,43306
22882,43305
22876,43300
22880,43318
22882,43308
22881,43310
22882,43321
22893,43322
22894,43329
22907,43340
22907,43327
22902,43326
22894,43321
22896,43318
22888,43310
22894,43323
22898,43314
22898,43320
22894,43317
22894,43318
22838,43228
22855,43242
22857,43253
22873,43279
22875,43268
22878,43284
22874,43265
22876,43278
22876,43274
22871,43260
22871,43265
22874,43269
22871,43274
22880,43266
22874,43274
22877,43260
22870,43266
22873,43264
22868,43264
22870,43272
22869,43264
22884,43268
22873,43271
22876,43271
22870,43262
22877,43268
22872,43264
22871,43256
22867,43260
22874,43272
22869,43264
22872,43267
22871,43276
22871,43261
22869,43271
22876,43270
22873,43267
22874,43275
22874,43275
22872,43269
22878,43291
22870,43266
22873,43280
22869,43279
22873,43288
22869,43289
22873,43286
22869,43283
22874,43284
22880,43288
22871,43287
22877,43297
22873,43287
22876,43303
22872,43299
22879,43298
22872,43293
22875,43302
22873,43301
22875,43311
22871,43310
22877,43308
22875,43311
22881,43322
22874,43315
22886,43323
22889,43332
22898,43343
22903,43341
22895,43336
22894,43324
22885,43325
22884,43307
22887,43309
22886,43309
22891,43322
22889,43311
22896,43318
22888,43314
22894,43315
22885,43306
22886,43307
22879,43300
22875,43296
22884,43290
22884,43290
22886,43301
22880,43298
22882,43298
22881,43298
22884,43297
22876,43292
22880,43289
22873,43289
22879,43298
22871,43299
22873,43286
22877,43299
22871,43293
22875,43292
22874,43293
22873,43297
22863,43296
22871,43298
22868,43297
22876,43302
22870,43297
22875,43309
22865,43302
22868,43298
22863,43300
22868,43310
22866,43296
22867,43305
22859,43284
22865,43301
22861,43292
22864,43301
22861,43302
22869,43303
22856,43300
22863,43295
22861,43294
22868,43303
22863,43296
22865,43297
22857,43281
22852,43273
22844,43267
22854,43255
22848,43260
22846,43261
22845,43264
22851,43268
22842,43250
22844,43256
22833,43231
22835,43240
22826,43223
22832,43235
22825,43220
22825,43220
22824,43215
22822,43203
22826,43220
22817,43213
22823,43215
22822,43217
22830,43216
22832,43229
22838,43224
22846,43245
22847,43241
22855,43232
22842,43227
22848,43239
22844,43237
22852,43239
22858,43244
22857,43246
22863,43253
22863,43257
22862,43235
22864,43255
22864,43241
22865,43260
22862,43243
22863,43255
22861,43251
22866,43261
22862,43243
22860,43255
22863,43263
22859,43244
22861,43262
22864,43258
22863,43265
22861,43265
22862,43261
22862,43262
22866,43265
22862,43272
22866,43268
22864,43268
22873,43269
22866,43265
22865,43280
22866,43268
22865,43281
22865,43281
22866,43267
22867,43281
22862,43277
22860,43289
22866,43279
22870,43289
22863,43284
22868,43290
22861,43291
22866,43290
22863,43282
22864,43293
22866,43301
22869,43297
22870,43293
22872,43305
22874,43307
22874,43299
22877,43308
22887,43320
22889,43328
22892,43329
22883,43316
22879,43306
22889,43307
22875,43303
22887,43301
22880,43305
22884,43306
22882,43304
22886,43300
22877,43303
22885,43303
22876,43291
22874,43298
22873,43289
22875,43290
22871,43283
22874,43294
22871,43278
22877,43304
22873,43285
22875,43291
22868,43293
22873,43297
22871,43278
22871,43296
22866,43285
22871,43296
22865,43294
22877,43292
22869,43283
22873,43298
22871,43292
22874,43290
22872,43294
22873,43300
22865,43294
22865,43294
22871,43295
22870,43298
22840,43228
22859,43254
22851,43246
22858,43250
22855,43247
22856,43256
22854,43258
22862,43257
22860,43263
22851,43257
22859,43259
22866,43260
22864,43256
22864,43270
22863,43260
22861,43273
22865,43265
22862,43268
22860,43262
22860,43266
22858,43267
22865,43280
22864,43269
22868,43283
22857,43277
22867,43290
22870,43275
22870,43275
22880,43295
22881,43293
22889,43305
22883,43284
22879,43285
22878,43271
22880,43273
22876,43270
22877,43271
22877,43279
22869,43274
22875,43268
22872,43268
22868,43262
22869,43260
22869,43257
22870,43269
22864,43253
22869,43253
22862,43255
22865,43260
22861,43256
22864,43264
22863,43251
22864,43257
22864,43254
22863,43255
22862,43252
22857,43260
22862,43262
22857,43254
22867,43266
22859,43248
22863,43270
22858,43257
22863,43264
22864,43258
22866,43271
22864,43264
22864,43273
22867,43268
22864,43273
22867,43272
22861,43283
22863,43282
22863,43282
22863,43282
22866,43285
22874,43285
22868,43287
22871,43292
22865,43288
22868,43291
22861,43284
22866,43293
22866,43292
22870,43298
22873,43301
22863,43292
22873,43304
22874,43309
22879,43304
22885,43319
22887,43318
22886,43315
22881,43304
22874,43300
22870,43294
22878,43301
22875,43290
22882,43302
22880,43291
22877,43296
22876,43293
22878,43291
22881,43294
22870,43276
22868,43293
22862,43274
22862,43277
22860,43259
22863,43278
22860,43270
22857,43266
22853,43258
22854,43269
22854,43268
22847,43261
22849,43253
22842,43259
22846,43245
22840,43254
22840,43250
22839,43249
22836,43240
22835,43251
22836,43241
22842,43251
22832,43235
22839,43254
22842,43246
22844,43248
22844,43254
22844,43254
22838,43257
22841,43247
22833,43239
22832,43232
22823,43224
22829,43222
22829,43231
22829,43221
22833,43223
22831,43215
22829,43210
22826,43215
22823,43214
22820,43211
22822,43211
22827,43216
22823,43215
22832,43220
22833,43232
22838,43230
22849,43245
22849,43252
22858,43259
22865,43252
22873,43278
22871,43269
22879,43282
22875,43270
22876,43273
22869,43266
22872,43276
22871,43269
22875,43271
22875,43268
22880,43279
22875,43276
22876,43274
22875,43263
22879,43274
22871,43267
22871,43266
22870,43265
22873,43277
22872,43264
22875,43271
22871,43277
22871,43277
22879,43272
22875,43264
22878,43277
22873,43268
22876,43277
22868,43272
22874,43279
22870,43276
22875,43275
22872,43277
22881,43278
22874,43279
22870,43285
22873,43286
22871,43291
22870,43288
22873,43294
22872,43288
22874,43288
22880,43299
22871,43298
22879,43304
22877,43309
22872,43307
22870,43300
22871,43294
22874,43314
22874,43310
22872,43310
22875,43314
22880,43308
22879,43319
22884,43322
22896,43323
22894,43337
22899,43336
22902,43333
22891,43314
22895,43319
22887,43303
22896,43319
22889,43316
22892,43322
22888,43306
22893,43317
22888,43310
22891,43314
22885,43303
22885,43304
22880,43303
22878,43301
22882,43302
22881,43302
22875,43307
22877,43297
22877,43297
22872,43301
22875,43298
22873,43300
22879,43294
22871,43303
22870,43302
22870,43297
22872,43293
22870,43301
22867,43291
22860,43294
22864,43293
22862,43295
22862,43293
22867,43304
22864,43293
22870,43273
22877,43283
22870,43270
22874,43280
22875,43276
22865,43280
22871,43274
22869,43279
22873,43294
22864,43287
22875,43290
22869,43275
22869,43292
22874,43288
22870,43285
22876,43294
22875,43286
22873,43299
22874,43292
22878,43301
22870,43292
22875,43301
22871,43300
22878,43308
22870,43300
22872,43301
22864,43298
22875,43311
22868,43314
22876,43313
22876,43313
22878,43323
22876,43316
22884,43323
22885,43322
22897,43336
22890,43334
22894,43319
22891,43326
22885,43316
22891,43317
22883,43310
22883,43310
22890,43314
22882,43312
22894,43317
22888,43312
22891,43321
22890,43301
22886,43304
22884,43297
22885,43308
22884,43301
22872,43297
22876,43303
22880,43297
22874,43290
22877,43298
22877,43291
22882,43301
22874,43292
22872,43300
22869,43292
22875,43299
22877,43304
22873,43301
22878,43305
22875,43300
22875,43303
22876,43315
22874,43314
22876,43309
22874,43306
22877,43321
22876,43303
22876,43327
22872,43310
22873,43318
22872,43308
22874,43319
22871,43314
22874,43323
22870,43320
22879,43324
22867,43323
22868,43316
22867,43322
22866,43320
22868,43327
22862,43325
22862,43325
22870,43320
22868,43332
22867,43328
22876,43328
22873,43326
22882,43332
22881,43328
22888,43340
22884,43335
22880,43319
22869,43308
22864,43306
22865,43306
22856,43296
22865,43305
22872,43312
22869,43298
22870,43308
22860,43291
22856,43286
22854,43272
22853,43286
22842,43276
22841,43259
22839,43263
22844,43269
22840,43258
22845,43271
22839,43269
22842,43265
22837,43247
22843,43262
22836,43257
22847,43257
22843,43257
22838,43255
22832,43238
22831,43239
22823,43216
22820,43216
22828,43223
22835,43238
22829,43232
22836,43235
22832,43223
22834,43233
22826,43209
22824,43226
22828,43223
22825,43226
22838,43231
22835,43241
22844,43256
22843,43252
22850,43259
22855,43264
22855,43264
22870,43278
22871,43280
22880,43284
22878,43281
22878,43280
22873,43268
22874,43269
22870,43281
22876,43271
22868,43274
22875,43268
22876,43280
22871,43282
22870,43273
22873,43278
22870,43269
22869,43278
22867,43265
22874,43276
22865,43268
22873,43271
22868,43282
22867,43272
22868,43273
22869,43286
22873,43288
22874,43283
22870,43283
22867,43286
22867,43279
22869,43281
22872,43283
22875,43289
22871,43296
22869,43283
22873,43287
22866,43298
22873,43292
22871,43295
22872,43293
22876,43305
22875,43301
22878,43300
22870,43304
22883,43309
22871,43313
22875,43302
22875,43302
22872,43312
22867,43304
22882,43309
22878,43310
22879,43319
22878,43324
22883,43329
22889,43315
22889,43315
22897,43343
22902,43343
22903,43346
22894,43333
22894,43331
22887,43320
22892,43328
22889,43327
22893,43328
22894,43321
22896,43331
22887,43327
22887,43317
22885,43320
22888,43314
22891,43315
22880,43309
22880,43316
22880,43300
22878,43314
22876,43306
22873,43308
22878,43309
22875,43316
22876,43316
22878,43311
22876,43311
22872,43309
22874,43305
22875,43302
22874,43302
22875,43307
22872,43301
22871,43312
22867,43296
22867,43298
22871,43301
22869,43299
22868,43308
22860,43296
22865,43300
22856,43297
22860,43297
22853,43287
22853,43295
22848,43289
22871,43311
22879,43314
22874,43309
22877,43310
22871,43317
22877,43316
22872,43311
22884,43323
22876,43327
22869,43322
22873,43327
22874,43329
22873,43316
22874,43333
22866,43323
22874,43324
22869,43329
22870,43339
22876,43337
22877,43340
22881,43343
22877,43338
22877,43338
22888,43358
22891,43357
22901,43362
22898,43355
22898,43352
22890,43340
22891,43341
22885,43335
22892,43346
22887,43337
22893,43339
22895,43336
22889,43337
22882,43333
22892,43333
22885,43327
22889,43330
22877,43331
22886,43337
22878,43317
22881,43334
22882,43323
22882,43335
22878,43321
22877,43326
22875,43332
22877,43328
22879,43334
22879,43329
22881,43335
22878,43327
22882,43337
22879,43330
22882,43339
22875,43325
22878,43346
22875,43330
22884,43338
22876,43333
22879,43344
22876,43331
22881,43351
22877,43338
22877,43338
22881,43346
22878,43347
22874,43329
22878,43353
22880,43344
22875,43349
22869,43343
22867,43347
22868,43330
22873,43347
22869,43333
22867,43350
22861,43347
22866,43344
22871,43346
22872,43339
22875,43346
22879,43340
22875,43340
22864,43333
22858,43323
22859,43319
22855,43318
22853,43318
22858,43318
22853,43310
22857,43306
22850,43302
22847,43294
22841,43277
22838,43285
22836,43278
22834,43275
22827,43270
22829,43265
22828,43262
22830,43273
22823,43259
22826,43267
22825,43256
22830,43257
22834,43256
22826,43256
22834,43250
22825,43250
22825,43233
22817,43219
22812,43227
22820,43240
22819,43231
22826,43237
22823,43241
22834,43247
22829,43252
22831,43249
22830,43245
22837,43249
22837,43249
22842,43259
22840,43263
22848,43270
22852,43269
22856,43276
22856,43274
22861,43283
22872,43293
22873,43304
22882,43307
22874,43296
22872,43296
22864,43280
22867,43273
22872,43285
22875,43275
22867,43282
22871,43274
22867,43281
22869,43273
22862,43274
22867,43271
22863,43273
22861,43271
22868,43279
22867,43265
22863,43274
22858,43263
22865,43277
22863,43268
22866,43285
22860,43273
22865,43275
22860,43265
22862,43278
22859,43272
22860,43276
22861,43270
22864,43285
22860,43273
22865,43282
22857,43271
22864,43290
22859,43269
22861,43292
22859,43285
22862,43294
22862,43294
22864,43286
22863,43295
22859,43283
22865,43306
22856,43289
22866,43300
22862,43294
22868,43310
22861,43300
22862,43303
22857,43296
22853,43306
22860,43306
22861,43314
22861,43311
22868,43326
22865,43317
22869,43318
22875,43322
22880,43330
22889,43335
22888,43343
22890,43330
22885,43316
22879,43317
22879,43318
22888,43320
22878,43320
22875,43324
22878,43321
22878,43320
22878,43311
22881,43324
22879,43309
22879,43319
22870,43308
22872,43315
22866,43297
22873,43308
22864,43304
22865,43312
22860,43300
22867,43314
22867,43298
22868,43310
22862,43299
22860,43308
22857,43290
22863,43297
22861,43285
22858,43294
22852,43285
22856,43299
22851,43295
22853,43295
22851,43288
22851,43288
22850,43298
22848,43287
22847,43293
22842,43281
22842,43278
22834,43275
22836,43286
22833,43277
22838,43284
22835,43280
22837,43280
22839,43282
22840,43280
22837,43287
22846,43292
22847,43283
22846,43283
22832,43267
22832,43269
22825,43263
22827,43252
22827,43252
22868,43335
22871,43336
22861,43331
22867,43345
22870,43343
22872,43341
22870,43342
22872,43347
22866,43344
22867,43350
22870,43340
22870,43351
22868,43345
22871,43353
22872,43365
22876,43349
22874,43369
22873,43357
22876,43368
22875,43372
22887,43376
22891,43394
22899,43388
22891,43369
22884,43379
22884,43358
22884,43358
22877,43362
22884,43365
22878,43368
22882,43359
22879,43360
22882,43349
22876,43359
22876,43354
22874,43341
22874,43346
22872,43337
22874,43350
22869,43349
22870,43333
22871,43344
22869,43338
22872,43345
22869,43333
22870,43350
22866,43338
22869,43334
22864,43335
22870,43346
22867,43337
22867,43349
22871,43347
22865,43345
22865,43345
22869,43350
22863,43349
22868,43350
22866,43341
22869,43349
22864,43350
22864,43355
22865,43350
22867,43360
22867,43346
22873,43357
22861,43357
22865,43360
22863,43354
22864,43365
22858,43360
22864,43369
22868,43370
22867,43356
22868,43377
22865,43355
22871,43375
22875,43364
22881,43375
22879,43373
22879,43373
22867,43355
22867,43343
22861,43337
22860,43338
22858,43333
22859,43337
22862,43341
22854,43324
22860,43324
22861,43339
22855,43313
22852,43316
22847,43313
22849,43314
22839,43304
22844,43305
22838,43308
22841,43308
22834,43287
22840,43305
22827,43292
22836,43303
22832,43286
22840,43299
22842,43295
22847,43292
22838,43288
22832,43273
22823,43264
22818,43252
22818,43252
22817,43243
22818,43252
22822,43250
22822,43248
22820,43244
22817,43244
22809,43235
22806,43231
22798,43225
22802,43220
22803,43218
22802,43215
22797,43214
22802,43216
22800,43206
22805,43212
22805,43216
22811,43223
22812,43233
22813,43221
22814,43223
22815,43202
22816,43216
22813,43221
22822,43220
22821,43219
22829,43222
22823,43234
22831,43242
22830,43239
22833,43248
22828,43237
22835,43248
22832,43249
22834,43245
22833,43240
22836,43246
22831,43244
22834,43240
22833,43238
22842,43257
22840,43247
22842,43262
22840,43261
22840,43261
22849,43267
22847,43253
22856,43268
22858,43272
22863,43283
22865,43274
22863,43262
22860,43273
22854,43241
22854,43250
22853,43253
22855,43257
22856,43261
22855,43255
22856,43264
22857,43251
22858,43254
22856,43254
22851,43249
22850,43241
22843,43233
22848,43250
22843,43242
22846,43240
22844,43235
22847,43241
22840,43242
22843,43246
22838,43240
22843,43253
22840,43241
22843,43253
22837,43243
22843,43250
22842,43235
22839,43251
22840,43255
22842,43250
22843,43260
22846,43253
22837,43270
22839,43264
22843,43273
22840,43270
22838,43268
22848,43273
22850,43267
22850,43279
22844,43269
22846,43281
22844,43279
22844,43280
22840,43282
22847,43289
22845,43286
22855,43292
22844,43300
22854,43298
22854,43298
22849,43294
22865,43313
22866,43307
22873,43319
22866,43306
22867,43307
22858,43295
22865,43304
22865,43300
22867,43302
22864,43300
22863,43297
22852,43299
22859,43291
22862,43289
22856,43293
22861,43290
22853,43282
22850,43291
22846,43276
22851,43288
22844,43274
22847,43285
22843,43285
22846,43281
22843,43280
22844,43288
22836,43278
22834,43279
22832,43275
22841,43285
22830,43268
22839,43271
22827,43270
22819,43250
22818,43261
22822,43261
22825,43262
22820,43262
22827,43266
22817,43264
22824,43269
22819,43271
22829,43278
22828,43283
22828,43267
22829,43296
22830,43278
22839,43294
22847,43300
22848,43295
22851,43311
22848,43298
22844,43301
22839,43283
22840,43284
22837,43278
22839,43285
22837,43279
22844,43286
22838,43278
22836,43288
22834,43279
22835,43276
22835,43272
22835,43272
22835,43276
22831,43275
22831,43252
22831,43278
22829,43266
22826,43258
22831,43267
22822,43271
22829,43268
22835,43274
22827,43274
22838,43277
22832,43267
22829,43288
22830,43270
22833,43284
22827,43281
22833,43284
22832,43278
22831,43294
22834,43297
22830,43281
22832,43296
22827,43283
22835,43303
22830,43290
22831,43303
22831,43301
22833,43305
22828,43301
22836,43310
22828,43301
22835,43309
22834,43316
22835,43306
22839,43318
22837,43313
22836,43304
22848,43324
22852,43317
22855,43335
22849,43319
22851,43316
22839,43314
22839,43314
22843,43309
22841,43305
22842,43307
22841,43299
22843,43300
22834,43297
22839,43292
22839,43289
22834,43287
22828,43290
22829,43292
22824,43282
22824,43283
22823,43288
22824,43285
22830,43285
22823,43274
22822,43282
22818,43270
22823,43274
22819,43275
22821,43274
22812,43260
22809,43264
22808,43259
22810,43259
22809,43268
22807,43261
22806,43263
22808,43248
22817,43262
22811,43260
22815,43261
22810,43261
22802,43248
22794,43225
22793,43227
22790,43229
22794,43224
22793,43220
22796,43220
22799,43217
22789,43217
22792,43208
22774,43198
22772,43190
22770,43190
22769,43184
22764,43179
22765,43175
22762,43188
22769,43183
22765,43179
22770,43175
22768,43180
22774,43185
22766,43182
22770,43183
22770,43183
22764,43165
22770,43180
22757,43155
22756,43155
22752,43133
22758,43152
22757,43140
22759,43149
22755,43134
22757,43147
22750,43142
22753,43137
22753,43126
22750,43140
22748,43131
22748,43144
22750,43139
22757,43149
22757,43156
22773,43162
22776,43167
22785,43179
22785,43175
22787,43175
22787,43174
22786,43180
22784,43166
22787,43173
22783,43164
22787,43183
22782,43166
22793,43188
22788,43180
22782,43172
22783,43169
22782,43181
22789,43183
22794,43187
22799,43198
22804,43194
22798,43195
22808,43210
22815,43203
22827,43221
22824,43217
22823,43209
22820,43207
22820,43207
22822,43206
22814,43200
22818,43204
22809,43190
22817,43199
22810,43187
22810,43204
22811,43189
22811,43195
22810,43195
22807,43182
22806,43183
22807,43183
22805,43181
22804,43184
22805,43193
22806,43178
22810,43184
22804,43186
22803,43187
22805,43189
22809,43201
22806,43188
22810,43202
22807,43209
22813,43200
22808,43200
22809,43211
22802,43204
22809,43215
22809,43210
22809,43215
22805,43218
22802,43214
22801,43206
22808,43213
22805,43219
22811,43228
22807,43232
22814,43225
22815,43233
22822,43230
22826,43239
22836,43252
22835,43251
22836,43249
22829,43236
22830,43236
22819,43229
22825,43226
22825,43214
22823,43223
22826,43226
22826,43222
22826,43222
22820,43225
22818,43216
22818,43216
22815,43200
22807,43208
22805,43196
22810,43202
22805,43193
22810,43201
22802,43189
22802,43190
22796,43192
22808,43181
22807,43175
22805,43182
22803,43184
22806,43175
22811,43181
22805,43179
22808,43188
22807,43183
22812,43194
22808,43190
22809,43191
22807,43192
22809,43196
22802,43195
22808,43206
22807,43206
22807,43205
22807,43207
22805,43206
22819,43222
22815,43209
22807,43217
22811,43212
22809,43218
22811,43214
22818,43233
22813,43222
22814,43230
22810,43231
22821,43234
22817,43231
22823,43251
22822,43230
22828,43248
22828,43233
22836,43245
22840,43256
22844,43253
22835,43245
22834,43235
22831,43229
22835,43227
22829,43224
22830,43225
22824,43230
22824,43230
22837,43228
22828,43228
22830,43225
22825,43221
22825,43222
22820,43219
22816,43213
22819,43210
22818,43218
22820,43217
22814,43213
22822,43213
22816,43223
22815,43215
22819,43218
22814,43212
22813,43221
22810,43216
22817,43227
22816,43221
22815,43227
22823,43230
22811,43222
22823,43231
22812,43226
22817,43231
22820,43230
22824,43244
22820,43239
22822,43247
22817,43243
22817,43237
22824,43253
22819,43243
22823,43251
22819,43246
22820,43248
22816,43256
22812,43256
22819,43251
22818,43261
22820,43262
22828,43265
22821,43270
22828,43260
22825,43259
22835,43268
22837,43272
22837,43272
22840,43282
22824,43270
22828,43263
22826,43255
22820,43246
22819,43237
22817,43245
22816,43244
22820,43249
22809,43235
22809,43235
22812,43241
22805,43218
22801,43227
22800,43215
22792,43208
22795,43212
22786,43204
22789,43210
22783,43208
22787,43197
22794,43210
22787,43204
22788,43212
22786,43206
22789,43213
22791,43197
22796,43223
22797,43207
22797,43213
22784,43194
22780,43190
22780,43182
22779,43189
22781,43180
22784,43193
22785,43189
22786,43185
22780,43188
22785,43186
22782,43189
22784,43190
22782,43204
22793,43197
22791,43203
22797,43209
22800,43223
22810,43226
22809,43232
22825,43250
22826,43255
22836,43261
22836,43263
22839,43263
22829,43261
22832,43247
22828,43237
22829,43243
22829,43243
22828,43234
22828,43244
22825,43247
22835,43242
22828,43239
22825,43234
22824,43246
22821,43235
22824,43242
22821,43226
22817,43231
22820,43235
22821,43237
22817,43231
22817,43233
22822,43244
22815,43239
22821,43241
22818,43248
22817,43244
22822,43244
22825,43247
22823,43248
22824,43255
22814,43254
22822,43252
22822,43252
22822,43261
22823,43253
22819,43262
22816,43245
22819,43269
22820,43252
22823,43268
22822,43265
22826,43284
22825,43274
22833,43281
22841,43292
22844,43288
22852,43301
22850,43297
22847,43294
22840,43276
22842,43282
22840,43272
22840,43284
22837,43273
22843,43278
22843,43278
22837,43277
22842,43287
22835,43266
22840,43280
22826,43263
22832,43267
22828,43265
22828,43266
22830,43260
22830,43260
22826,43267
22826,43264
22833,43267
22824,43265
22830,43275
22827,43274
22833,43270
22829,43272
22832,43276
22822,43278
22829,43271
22833,43283
22821,43270
22825,43277
22831,43284
22827,43274
22829,43274
22825,43273
22822,43287
22820,43265
22823,43286
22821,43271
22815,43270
22807,43279
22809,43267
22811,43272
22810,43267
22811,43274
22813,43269
22813,43281
22813,43269
22817,43274
22816,43280
22828,43293
22822,43276
22823,43277
22848,43279
22836,43270
22845,43281
22838,43285
22838,43270
22846,43269
22837,43269
22840,43277
22838,43268
22834,43264
22838,43274
22834,43269
22836,43282
22832,43263
22834,43278
22834,43275
22840,43280
22835,43288
22834,43274
22834,43279
22839,43291
22832,43281
22835,43290
22835,43290
22832,43282
22838,43285
22842,43285
22840,43290
22840,43287
22832,43295
22842,43293
22840,43296
22843,43302
22836,43306
22834,43297
22832,43286
22842,43292
22839,43300
22849,43312
22839,43315
22848,43312
22844,43308
22847,43317
22850,43325
22866,43341
22863,43328
22871,43339
22863,43322
22862,43331
22858,43325
22865,43327
22854,43317
22861,43328
22855,43310
22861,43333
22859,43307
22858,43320
22852,43308
22853,43312
22851,43297
22850,43309
22845,43313
22854,43302
22844,43295
22850,43298
22841,43294
22841,43299
22836,43293
22836,43293
22836,43289
22843,43295
22829,43294
22836,43288
22826,43288
22829,43288
22823,43276
22824,43277
22823,43274
22825,43276
22809,43260
22808,43257
22812,43264
22813,43260
22814,43268
22806,43268
22813,43269
22804,43260
22814,43259
22811,43265
22823,43277
22813,43262
22816,43262
22812,43262
22805,43233
22803,43238
22804,43237
22806,43238
22803,43237
22805,43242
22805,43229
22798,43230
22797,43225
22796,43221
22788,43207
22787,43216
22787,43209
22786,43215
22782,43199
22785,43204
22783,43205
22788,43208
22781,43204
22798,43214
22797,43223
22810,43238
22818,43233
22816,43246
22817,43239
22815,43242
22811,43240
22822,43242
22824,43253
22832,43257
22832,43256
22842,43269
22833,43256
22833,43256
22838,43265
22832,43260
22841,43267
22838,43258
22834,43265
22835,43272
22833,43267
22838,43264
22831,43270
22838,43263
22834,43267
22837,43270
22841,43274
22838,43273
22843,43281
22836,43274
22845,43283
22840,43272
22839,43280
22840,43276
22844,43289
22836,43280
22844,43292
22842,43280
22849,43288
22842,43288
22841,43285
22846,43294
22839,43285
22841,43293
22838,43299
22838,43299
22838,43284
22843,43308
22845,43305
22847,43309
22842,43309
22852,43309
22849,43305
22860,43316
22860,43323
22875,43343
22871,43331
22868,43322
22864,43323
22861,43306
22861,43306
22855,43315
22860,43308
22863,43311
22862,43304
22860,43308
22862,43302
22860,43306
22856,43302
22857,43296
22853,43287
22850,43297
22853,43288
22852,43301
22851,43287
22851,43293
22846,43292
22845,43292
22846,43288
22852,43294
22848,43291
22852,43292
22850,43281
22850,43299
22842,43296
22850,43295
22845,43296
22853,43303
22841,43302
22848,43294
22852,43302
22850,43294
22851,43307
22847,43302
22851,43304
22852,43296
22852,43307
22848,43315
22857,43312
22848,43319
22851,43318
22847,43305
22851,43315
22839,43307
22844,43315
22841,43311
22852,43316
22842,43313
22850,43316
22843,43311
22844,43319
22845,43314
22849,43317
22859,43330
22857,43324
22857,43321
22851,43305
22851,43305
22843,43304
22844,43298
22837,43293
22839,43293
22841,43293
22842,43289
22840,43287
22840,43282
22829,43275
22826,43271
22826,43271
22821,43248
22819,43262
22810,43258
22813,43255
22810,43253
22815,43255
22810,43254
22814,43237
22811,43252
22859,43304
22859,43301
22863,43296
22861,43294
22857,43303
22854,43319
22860,43303
22858,43306
22859,43307
22862,43303
22858,43305
22857,43316
22866,43322
22865,43315
22869,43321
22860,43320
22863,43320
22853,43313
22862,43316
22864,43323
22867,43329
22863,43332
22867,43336
22863,43330
22870,43336
22878,43331
22884,43356
22890,43351
22893,43361
22883,43348
22887,43344
22878,43339
22882,43338
22882,43329
22880,43343
22875,43334
22882,43344
22880,43333
22879,43336
22880,43324
22879,43338
22874,43322
22870,43327
22871,43324
22865,43322
22865,43322
22876,43317
22868,43323
22870,43320
22866,43322
22870,43323
22866,43312
22868,43324
22871,43318
22872,43330
22867,43311
22866,43324
22862,43312
22866,43324
22857,43324
22860,43330
22862,43324
22863,43318
22861,43328
22858,43317
22856,43328
22858,43320
22856,43315
22854,43320
22858,43312
22859,43325
22855,43313
22851,43320
22847,43308
22844,43312
22844,43324
22847,43320
22844,43319
22849,43313
22847,43318
22848,43314
22853,43312
22858,43327
22857,43317
22859,43319
22845,43299
22840,43293
22837,43291
22832,43284
22837,43287
22835,43285
22839,43286
22839,43286
22836,43287
22839,43277
22829,43260
22827,43261
22819,43238
22817,43255
22813,43246
22809,43246
22813,43229
22810,43243
22810,43243
22807,43226
22808,43238
22803,43219
22809,43236
22808,43222
22815,43243
22815,43236
22825,43245
22814,43229
22818,43241
22808,43223
22809,43216
22814,43222
22832,43247
22831,43249
22842,43256
22837,43264
22842,43261
22838,43266
22843,43262
22838,43271
22844,43261
22844,43280
22842,43279
22846,43279
22847,43278
22850,43271
22851,43282
22846,43276
22853,43272
22845,43281
22846,43278
22848,43286
22848,43287
22856,43303
22855,43292
22854,43296
22858,43295
22866,43298
22871,43313
22879,43314
22884,43327
22879,43307
22876,43301
22870,43294
22870,43294
22878,43303
22872,43286
22876,43296
22876,43289
22876,43307
22874,43288
22874,43288
22869,43280
22869,43285
22866,43282
22868,43296
22862,43285
22858,43280
22867,43279
22862,43282
22865,43290
22863,43276
22866,43285
22866,43274
22865,43288
22863,43278
22860,43286
22861,43276
22861,43295
22862,43281
22865,43294
22859,43277
22867,43296
22862,43294
22866,43300
22861,43290
22866,43298
22861,43296
22869,43307
22862,43297
22863,43316
22865,43304
22871,43313
22862,43304
22867,43306
22861,43315
22864,43310
22867,43306
