IR Value,Red Value
49674,6424
49651,6411
49663,6429
49659,6423
49655,6413
49630,6390
49645,6389
49615,6375
49598,6358
49582,6334
49570,6305
49570,6305
49549,6279
49537,6270
49525,6251
49553,6285
49570,6315
49570,6291
49560,6288
49560,6298
49542,6276
49548,6285
49533,6249
49522,6249
49513,6227
49497,6199
49481,6182
49460,6178
49413,6127
49369,6045
49284,5953
49223,5875
49155,5816
49106,5746
49063,5676
49011,5628
49006,5612
49030,5646
49061,5702
49090,5723
49134,5797
49196,5859
49287,5985
49332,6031
49349,6059
49372,6085
49461,6187
49527,6268
49609,6368
49653,6437
49700,6477
49823,6659
49932,6798
49038,5703
48631,5212
48557,5124
48561,5166
48279,4867
47864,4376
47488,3891
47504,3939
47367,3787
46969,3300
46420,2626
46238,2423
46367,2572
46763,3102
47013,3425
46866,3253
46546,2857
46093,2296
45307,1452
45307,1452
44228,65521
43162,64170
42077,62919
40320,60561
38482,58212
36770,55916
36374,55299
36566,55584
36567,55598
36745,55866
36809,55932
37058,56282
37444,56797
37576,56963
37741,57185
38063,57580
38605,58300
38897,58642
39109,58912
39376,59250
39797,59719
39970,59944
40033,60015
39979,59947
39862,59788
39732,59622
39658,59523
39565,59412
39383,59172
39081,58777
38486,58006
38093,57492
38276,57751
38933,58617
39436,59220
39511,59393
39597,59500
40295,60440
41105,61634
41734,62458
41299,61919
41426,62063
41902,62666
42520,63447
43224,64276
43847,65067
43847,65067
44223,1
44328,126
44431,243
44638,521
44659,548
44839,760
44847,777
44700,659
44821,837
44912,963
44914,988
44967,1070
45096,1286
45457,1765
45928,2288
46538,3030
46538,3030
47442,4160
47541,4335
46868,3512
46498,3063
45596,1952
44511,590
44133,107
44009,65521
44130,99
44605,694
45169,1370
45706,2053
45889,2323
45985,2364
46343,2789
46627,3078
47026,3525
47334,3899
47476,4067
47665,4288
48365,5124
48914,5821
49662,6739
50393,7671
50981,8385
51504,9028
51834,9423
52212,9874
52740,10423
53080,10845
53079,10880
53013,10793
53025,10780
53101,10907
53195,11021
53213,11076
53155,10993
53007,10831
52914,10735
52708,10496
52666,10432
52683,10444
52638,10428
52492,10220
52255,9940
51987,9632
51987,9632
51808,9404
51585,9146
51382,8912
51303,8817
51281,8806
51208,8721
51107,8583
51012,8485
50921,8370
50851,8292
50755,8170
50724,8158
50657,8052
50646,8045
50738,8162
50800,8234
50808,8248
50907,8360
51025,8508
51276,8820
50627,8092
49139,6254
48889,6011
48777,5896
48079,5045
47196,3953
47041,3754
47462,4285
47216,3991
46800,3498
46096,2624
45326,1779
44795,995
44259,284
43768,65210
43585,64955
43568,64947
43524,64893
43211,64467
43134,64390
42446,63492
41940,62915
41729,62728
41546,62508
41829,62919
42198,63453
42622,64034
43034,64601
43331,65018
43471,65239
43891,237
43540,65358
42785,64404
42379,63867
42789,64383
43370,65096
43450,65174
43524,65314
43831,254
44124,727
44645,1406
44645,1406
44579,1295
44289,926
44227,764
44396,969
44680,1325
44823,1508
44987,1693
45120,1868
45178,1955
45209,1977
45177,1929
45165,1902
45278,2060
45480,2253
45484,2246
45402,2173
45320,2060
45105,1755
44775,1335
44441,912
44208,591
44024,350
42895,64377
41901,63107
41520,62564
41219,62132
41092,61920
41215,62073
41238,62112
41270,62141
41134,61950
40975,61631
40848,61457
40767,61350
40717,61267
40684,61239
40728,61260
40821,61390
41039,61677
41363,62107
41614,62432
41775,62661
42007,62939
42204,63218
42440,63516
42547,63663
42671,63807
43005,64262
43005,64262
43290,64678
43044,64306
43078,64347
43234,64521
43123,64366
43064,64281
43009,64209
42910,64099
42907,64080
42780,63899
42646,63728
42640,63711
42790,63912
43083,64266
43324,64578
43493,64786
43575,64870
43668,64990
43570,64841
43354,64524
43125,64200
42944,63958
42816,63770
42530,63387
42325,63106
42204,62946
42135,62814
42097,62759
42103,62717
42154,62729
42284,62866
42602,63253
42938,63604
43294,64024
43591,64365
44110,65000
44287,65201
44517,65479
44639,113
44614,87
44422,65323
44334,65184
44119,64891
43895,64584
43744,64367
43723,64355
43714,64324
43678,64261
43718,64353
43704,64324
43783,64430
43830,64461
43913,64497
43934,64500
43870,64386
43741,64224
43718,64199
43795,64284
43833,64333
43767,64239
43767,64239
43708,64167
43627,64078
43574,63985
43503,63900
43431,63816
43349,63695
43258,63580
43103,63368
42975,63194
42815,62975
42672,62752
42580,62631
42513,62553
42503,62540
42504,62553
42560,62597
42608,62665
42601,62652
42537,62545
42503,62497
42476,62462
42407,62358
42254,62144
42134,61951
42024,61799
41924,61618
41776,61387
41588,61139
41333,60761
41118,60472
40955,60261
40857,60086
40748,59914
41050,60257
41284,60545
40833,59902
40739,59779
40946,60066
41354,60649
41863,61367
42533,62345
43462,63600
44262,64654
44854,65449
45583,936
46616,2283
48171,4147
48171,4147
49983,6434
54727,12053
274,28622
62593,28147
5357,32719
61440,30720
22480,45005
14698,30720
5494,22820
56244,4484
38010,46352
18751,21362
10418,11877
5526,6327
3430,4014
2658,3222
2282,2822
2056,2601
1923,2470
1867,2416
1828,2392
1826,2397
1867,2465
1917,2507
1875,2455
1753,2328
1685,2261
1683,2284
1676,2267
1698,2272
1646,2229
1632,2206
1628,2228
1602,2172
1648,2197
1601,2175
1595,2164
1605,2216
1595,2164
1643,2193
1602,2173
1592,2162
1608,2215
1595,2165
1637,2197
1600,2178
1593,2160
1604,2215
1594,2163
1634,2201
1600,2182
1595,2161
1606,2208
1594,2164
1629,2205
1599,2182
1592,2160
1611,2202
1611,2202
1594,2162
1622,2207
1597,2180
1588,2156
1617,2196
1592,2160
1622,2210
1597,2181
1590,2157
1626,2197
1591,2156
1619,2209
1596,2177
1591,2157
1631,2194
1592,2159
1617,2212
1599,2179
1592,2158
1638,2190
1593,2161
1620,2211
1603,2179
1590,2156
1636,2185
1592,2160
1624,2209
1606,2178
1592,2160
1633,2181
1594,2163
1627,2206
1608,2174
1593,2162
1629,2180
1598,2165
1632,2204
1617,2175
1600,2162
1635,2187
1605,2167
1644,2208
1621,2175
1600,2163
1633,2197
1600,2165
1643,2208
1615,2175
1615,2175
1598,2162
1627,2196
1596,2167
1632,2200
1610,2177
1596,2165
1618,2189
1596,2169
1628,2196
1609,2180
1596,2167
1617,2193
1599,2171
1629,2198
1612,2186
1600,2170
1617,2198
1599,2170
1634,2199
1612,2188
1600,2170
1616,2200
1601,2172
1632,2197
1608,2190
1597,2167
1612,2198
1598,2167
1630,2194
1605,2189
1595,2164
1618,2195
1596,2167
1630,2196
1606,2188
1596,2165
1620,2198
1600,2169
1632,2199
1607,2189
1598,2167
1626,2202
1602,2173
1632,2201
1610,2190
1601,2169
1627,2203
1605,2174
1633,2204
1615,2191
1601,2172
1628,2204
1603,2176
1628,2202
1617,2188
1599,2169
1626,2204
1601,2171
1601,2171
1627,2198
1617,2185
1597,2164
1623,2203
1597,2167
1622,2193
1614,2179
1595,2162
1621,2200
1598,2167
1621,2189
1616,2181
1596,2162
1623,2199
1604,2173
1628,2196
1625,2192
1616,2187
1660,2247
1702,2303
1891,2516
2192,2871
2808,3562
3435,4241
3944,4777
4100,4922
4237,5086
4461,5336
4849,5753
5247,6190
5674,6628
6107,7121
6663,7738
7735,8915
9689,11102
11189,12737
12650,14619
14044,16264
15006,17298
15425,17842
15646,18113
15553,18075
14932,17390
14373,16749
13501,15763
12626,14709
11795,13750
10697,12518
10697,12518
7378,9005
4334,5482
4136,5196
3847,4884
3010,3883
2914,3736
2949,3792
3202,4061
4639,5618
8879,10094
22702,24650
44155,46761
53720,56761
55853,59183
57427,61816
58105,63156
58192,63279
58148,63042
58370,63330
58930,64254
59762,170
60551,1565
61320,3001
61985,4395
62672,5627
63183,6593
63543,7279
63730,7659
63851,7916
63977,8190
64076,8306
64116,8408
64155,8504
64215,8611
64292,8785
64432,9057
64535,9265
64630,9397
64740,9560
64812,9702
64936,9887
65041,10047
65192,10243
65294,10411
65424,10572
65510,10693
65498,10771
65466,10754
65455,10752
65452,10772
65434,10749
65337,10631
65229,10508
65165,10419
65045,10219
64965,10135
64900,10013
64879,9991
64860,9979
64825,9920
64825,9920
64803,9891
64780,9861
64799,9912
64878,10057
64853,10108
64501,9668
64307,9393
64173,9258
64222,9320
64241,9346
64244,9355
64252,9413
64268,9420
64235,9371
64206,9303
64191,9225
64180,9180
64126,9080
64095,8983
64068,8926
64016,8840
63959,8717
63886,8596
63832,8502
63758,8344
63661,8175
63529,7942
63376,7651
63249,7408
63123,7137
63047,6951
62972,6802
62937,6674
62908,6601
62860,6515
62837,6450
62818,6373
62823,6372
62804,6347
62804,6314
62785,6225
62702,6007
62577,5661
62408,5274
62222,4879
62061,4521
62061,4521
61820,4061
61558,3666
61406,3192
61165,2737
60659,2054
60495,1787
60253,1487
60141,1336
60168,1447
60351,1831
60650,2353
60901,2808
61106,3139
61263,3438
61382,3604
61418,3676
61506,3796
61613,4018
61756,4249
62066,4667
62397,5122
62643,5431
62750,5642
62784,5826
62953,6084
63334,6590
63813,7342
63930,7795
64035,8264
64296,8645
64557,9033
64733,9347
64787,9519
64817,9650
64865,9805
64896,9900
64873,9883
64796,9784
64753,9661
64742,9578
64803,9583
64834,9570
64896,9618
64982,9689
65030,9762
65080,9794
65125,9879
65199,9995
65250,10115
65319,10209
65439,10342
54,10520
407,10879
621,11315
208,11311
65203,11083
62612,6616
20480,28672
7519,7304
7794,7619
7794,7619
8324,8252
9140,9173
10278,10401
12273,12620
14470,15156
17455,18711
22365,24633
29023,32397
35525,40643
42311,48407
48096,55072
52904,60550
57229,65406
60545,3188
61668,4522
62446,6176
63987,6983
65000,7290
63683,4774
61535,2696
60147,1346
59191,356
58576,65264
57970,64492
57398,63829
57075,63475
56926,63483
57204,63972
57480,64398
57603,64519
57702,64653
57717,64653
57680,64632
57684,64644
57653,64596
57549,64478
57425,64335
57379,64407
57324,64550
57388,64853
57564,65283
57732,131
57896,459
58024,726
58192,1046
58387,1421
58619,1828
58892,2225
59206,2707
59531,3186
59531,3186
59821,3580
60204,3670
60450,3853
61004,4220
61302,4471
59306,2793
60892,4163
61503,5018
61871,5515
61871,5515
62086,5805
62210,6006
62295,6183
62132,6203
61933,5969
61740,5618
61570,5255
61439,4963
61249,4619
61048,4269
60858,3974
60723,3747
60697,3682
60784,3806
60928,4012
61117,4297
61351,4679
61611,5084
61949,5569
62422,6230
62845,6804
63075,7118
63210,7281
63165,7294
63000,7274
62614,6427
50907,58371
49846,56762
51959,59454
53703,61731
55191,63382
56344,64687
57266,79
58667,1547
60343,3321
61550,4753
61817,5313
61945,5708
61946,5971
62138,6291
62718,7030
63735,8262
64734,9438
65466,10425
402,11086
614,11314
614,11314
918,11682
1061,11852
1061,11852
1182,11986
1265,12066
1299,12083
1317,12132
1353,12207
1360,12238
1382,12314
1363,12255
1349,12277
1325,12308
1313,12318
1262,12311
1171,12243
1102,12199
1021,12174
964,12156
939,12172
915,12218
911,12244
869,12241
869,12271
840,12275
843,12307
873,12373
916,12464
943,12511
937,12535
953,12576
974,12603
999,12659
1025,12683
1009,12648
933,12433
833,12171
761,11991
765,12035
784,12080
793,12126
789,12149
813,12201
780,12206
789,12243
786,12223
774,12248
764,12238
744,12232
737,12232
713,12227
722,12217
707,12232
707,12240
709,12253
706,12253
713,12271
725,12283
704,12256
704,12256
712,12289
696,12269
685,12283
673,12282
666,12263
587,12119
488,11879
388,11650
337,11539
344,11541
347,11548
371,11629
392,11665
406,11724
437,11784
463,11823
479,11877
487,11909
494,11938
511,11959
532,12011
553,12067
605,12146
651,12230
719,12329
764,12411
815,12501
880,12592
897,12631
926,12670
933,12733
984,12757
1022,12811
1026,12838
1048,12875
1033,12825
1032,12801
1018,12771
1001,12741
1002,12761
1013,12771
1007,12787
1012,12786
1011,12798
992,12779
983,12768
954,12727
938,12718
938,12718
887,12647
858,12609
833,12562
804,12524
817,12517
820,12536
817,12585
846,12644
839,12672
884,12729
889,12789
918,12825
928,12869
935,12886
961,12922
969,12942
979,12982
980,12965
999,12981
985,12929
963,12904
937,12848
920,12823
908,12813
923,12821
896,12806
877,12790
870,12758
840,12709
833,12675
796,12594
746,12465
645,12253
546,12017
453,11762
377,11604
301,11464
219,11333
167,11224
83,11099
65520,10992
65444,10880
65339,10711
65271,10590
65172,10450
65017,10270
64991,10232
65028,10299
65038,10337
65060,10373
65002,10287
64845,9945
64649,9542
64522,9192
64416,8914
64342,8706
64309,8529
64237,8332
64237,8332
64181,8191
64062,7829
63894,7407
63693,6900
63474,6366
63253,5806
62982,5144
62669,4413
62345,3738
62144,3111
62064,2858
62066,2788
62097,2832
62088,2840
62126,2912
62141,3005
62093,3065
62015,3122
61936,3125
61847,3142
61780,3233
61861,3563
62030,3979
62134,4229
62033,4134
61990,3878
62194,3628
62100,3361
61992,3127
61969,2939
61968,2858
61902,2717
61694,2358
61431,1982
61343,1690
61708,1855
61908,2285
61692,2388
61579,2338
61612,2372
61362,2286
61290,2139
63709,6095
61823,5354
61118,4851
60632,4255
60469,3980
60469,3980
60723,4243
61065,4507
61442,4812
61855,5069
62278,5305
62607,5477
62961,5632
63278,5710
63619,5758
63924,5831
64162,6022
64454,6424
64762,7058
64985,7767
65187,8358
65478,9010
13,9500
46,9871
65411,10067
64550,9484
62304,6761
62665,6496
61286,4748
52253,62277
38547,47314
24814,30577
13730,16917
7645,9798
4837,6292
3733,4875
2865,3755
2507,3276
2275,2981
2075,2734
1906,2503
1784,2347
1690,2213
1612,2108
1520,1991
1455,1896
1412,1845
1362,1771
1328,1733
1278,1678
1256,1646
1268,1665
1266,1664
1288,1698
1283,1692
1272,1674
1269,1670
1243,1636
1254,1658
1243,1643
1235,1627
1251,1641
1233,1623
1243,1642
1243,1642
1233,1626
1222,1608
1241,1627
1220,1604
1231,1625
1220,1611
1215,1598
1237,1613
1214,1597
1224,1617
1218,1602
1209,1590
1231,1603
1208,1588
1221,1612
1212,1595
1206,1583
1226,1594
1203,1579
1216,1600
1205,1583
1197,1569
1215,1579
1191,1563
1206,1582
1196,1565
1184,1551
1205,1563
1182,1549
1200,1570
1191,1554
1180,1546
1199,1557
1180,1547
1199,1568
1190,1554
1181,1544
1196,1558
1179,1545
1199,1564
1189,1550
1177,1540
1194,1554
1174,1538
1192,1554
1180,1537
1169,1526
1184,1540
1184,1540
1164,1524
1187,1545
1172,1528
1163,1519
1180,1536
1162,1520
1186,1540
1173,1526
1161,1519
1180,1539
1163,1524
1189,1543
1175,1533
1167,1525
1183,1547
1168,1530
1191,1549
1178,1540
1167,1527
1186,1548
1167,1531
1191,1548
1177,1539
1167,1527
1184,1547
1169,1529
1188,1545
1175,1538
1170,1531
1181,1546
1173,1534
1189,1549
1180,1547
1179,1541
1188,1558
1182,1552
1195,1564
1186,1563
1182,1559
1187,1571
1182,1566
1194,1589
1214,1647
1328,1920
1529,2534
1731,3042
1834,3427
1909,3399
1947,3788
1871,3906
1872,3400
1635,2909
1938,3525
3062,7148
2891,7481
2677,7218
2660,7236
2660,7236
2644,7242
2609,7234
2619,7193
2661,7045
2470,6833
2263,6148
2208,5825
2095,6141
1970,5868
2289,6576
3172,9021
3044,7760
2481,5327
2218,4202
2129,3816
2108,3607
2113,3562
2033,3247
1924,2934
1867,2735
1781,2553
1708,2356
1651,2230
1591,2108
1533,2022
1508,1979
1510,1982
1514,1988
1505,1974
1497,1959
1482,1937
1463,1907
1449,1889
1437,1870
1434,1863
1424,1849
1417,1837
1418,1837
1410,1830
1414,1830
1453,1878
1475,1905
1479,1910
1469,1897
1475,1902
1473,1901
1472,1898
1481,1912
1481,1912
1475,1904
1485,1915
1487,1915
1480,1910
1490,1924
1485,1915
1493,1925
1530,1964
1764,2233
1845,2336
1834,2321
1846,2333
1844,2329
1841,2324
1855,2346
1842,2328
1852,2339
1852,2336
1837,2322
1856,2343
1843,2325
1856,2337
1858,2340
1851,2335
1870,2367
1865,2356
1885,2372
1895,2384
1979,2470
3672,4356
3935,4657
3941,4650
3954,4673
3937,4657
3960,4685
3948,4669
3962,4674
3955,4677
3945,4668
3967,4693
3950,4679
3962,4672
3949,4671
3933,4655
3950,4676
3936,4662
3954,4660
3948,4667
3936,4655
3964,4681
3955,4676
3976,4678
3976,4696
3960,4681
3979,4697
3951,4674
3963,4665
3955,4673
3948,4668
3975,4696
3975,4696
3961,4683
3975,4679
3972,4691
3962,4687
3985,4706
3970,4696
3987,4695
3990,4713
3982,4710
4013,4738
3998,4729
4017,4726
4009,4739
3998,4728
4020,4744
4001,4731
4018,4729
4018,4742
4010,4737
4039,4755
4025,4752
4037,4746
4031,4758
4016,4745
4041,4760
4021,4748
4035,4749
4031,4761
4027,4757
4052,4772
4034,4766
4047,4764
4047,4781
4042,4772
4065,4786
4048,4781
4058,4778
4063,4801
4053,4784
4079,4802
4058,4790
4057,4786
4064,4801
4050,4784
4069,4793
4053,4785
4053,4785
4051,4775
4058,4795
4051,4778
4077,4793
4061,4787
4054,4781
4064,4804
4053,4785
4076,4799
4058,4792
4057,4788
4068,4813
4065,4797
4090,4815
4074,4809
4070,4800
4078,4823
4069,4801
4086,4812
4073,4808
4066,4802
4083,4828
4076,4809
4095,4826
4078,4816
4069,4805
4080,4827
4074,4807
4091,4822
4085,4821
4082,4814
4098,4840
4093,4821
4112,4843
4097,4831
4093,4822
4103,4846
4103,4835
4162,4897
4208,4949
4238,4978
4281,5032
4282,5022
4305,5050
4306,5049
4307,5040
4310,5042
4275,5000
4279,5007
4267,4990
4258,4975
4275,4992
4246,4959
4235,4954
4212,4929
4198,4911
4217,4928
4200,4908
4210,4928
4210,4928
4195,4908
4171,4874
4166,4865
4106,4806
4077,4783
4034,4737
4001,4699
4003,4690
3935,4623
3897,4589
3844,4523
3806,4468
3774,4419
3694,4345
3660,4307
3605,4247
3557,4190
3558,4182
3470,4094
3438,4062
3394,4013
3355,3969
3357,3961
3311,3922
3311,3922
3281,3886
3254,3859
3269,3865
3237,3840
3249,3851
3235,3827
3220,3813
3239,3828
3227,3820
3256,3852
3269,3866
3276,3878
3310,3915
3304,3915
3343,3952
3356,3966
3385,4004
3463,4083
3506,4131
3626,4255
3793,4426
4224,4851
6019,6642
6019,6642
15228,16428
19527,21195
19323,21067
19750,21644
20347,22445
21004,23419
21603,24194
21966,24572
22192,24872
22294,25043
22342,25144
22408,25210
22507,25319
22610,25426
22758,25597
23005,25894
23364,26324
23555,26551
23767,26789
23949,26993
24021,27098
24215,27365
24538,27929
24281,27728
24056,27554
23815,27332
23432,26975
23066,26645
22785,26399
22663,26313
22798,26468
23182,26905
23722,27496
24254,28070
24783,28621
25304,29096
25759,29572
26223,30041
26756,30575
27318,31137
27817,31579
28329,31967
28826,32391
29344,32774
29896,33160
30445,33634
30970,34123
31604,34725
32210,35318
32636,35747
32894,36101
33193,36385
33452,36633
33612,36767
33750,36878
33903,36893
34037,37032
34128,37119
34249,37233
34249,37233
34347,37346
34459,37460
34594,37603
34663,37687
34703,37726
34729,37773
34747,37789
34777,37832
34805,37862
34866,37915
34880,37930
34875,37872
34869,37779
34851,37685
34826,37602
34827,37577
34836,37582
34896,37651
34946,37718
35054,37852
35171,37999
35297,38149
35392,38276
35441,38319
35488,38365
35506,38379
35523,38401
35529,38405
35540,38428
35584,38462
35625,38524
35661,38574
35705,38627
35705,38662
35738,38702
35766,38738
35776,38754
35816,38797
35829,38827
35871,38877
35895,38901
35918,38893
35903,38809
35866,38694
35841,38608
35871,38618
35871,38618
35909,38667
35940,38716
35980,38790
36036,38850
36100,38955
36267,39151
36336,39244
36376,39281
36432,39329
36432,39329
36425,39310
36452,39337
36469,39354
36524,39433
36596,39516
36667,39604
36717,39667
36752,39715
36757,39744
36796,39800
36825,39823
36858,39875
36758,39909
36790,39953
36840,40005
36810,39952
36759,39822
36669,39652
36611,39551
36597,39503
36593,39522
36622,39558
36656,39631
36697,39689
36736,39749
36758,39808
36779,39817
36769,39830
36740,39787
36750,39796
36783,39822
36788,39821
36815,39840
36863,39880
36921,39936
36972,40002
37027,40064
37078,40120
37127,40176
37168,40219
37192,40260
37208,40281
37229,40309
37246,40317
37268,40352
37243,40315
37201,40199
37118,40055
37118,40055
37068,39929
37033,39886
37035,39866
37049,39904
37068,39934
37103,39995
37152,40079
37208,40149
37279,40250
37303,40300
37308,40312
37307,40314
37297,40304
37300,40307
37326,40335
37419,40446
37500,40598
37085,40211
36379,39515
35045,38144
33161,36118
31111,33829
28785,31527
26814,29328
25172,27662
23740,26013
22941,25137
22355,24493
21985,24126
21726,23793
21304,23260
20551,22360
19625,21155
18628,20114
18066,19471
18020,19394
18244,19617
18991,20399
19287,20740
19066,20508
18923,20354
18788,20204
18806,20199
18978,20372
19046,20439
18880,20264
18633,20008
18545,19918
18710,20095
18972,20379
19037,20453
18875,20301
18704,20134
18609,20049
18057,19505
17694,19122
17317,18735
16685,18072
16401,17760
16401,17760
16730,17952
16934,18129
16625,17750
16603,17713
16548,17643
16438,17523
16364,17435
16482,17549
16577,17672
16539,17651
16528,17664
16303,17423
15871,16981
15216,16305
14047,15177
12460,13520
10865,11841
9182,10079
8397,9253
8051,8783
7480,8194
7119,7933
6859,7656
6536,7335
6236,7007
5938,6699
5601,6339
5392,6110
5201,5919
5073,5774
5010,5704
4891,5576
4810,5483
4649,5314
4625,5282
4703,5364
4766,5432
4853,5520
4877,5550
4867,5539
4910,5590
4906,5581
4953,5634
4962,5645
4963,5647
5015,5706
5015,5701
5020,5709
4993,5672
4993,5672
4959,5646
4948,5644
4863,5546
4854,5537
4812,5487
4732,5406
4662,5343
4543,5210
4489,5152
4409,5071
4318,4978
4272,4942
4173,4830
4142,4790
4112,4756
4089,4733
4140,4797
4148,4807
4244,4888
4301,4959
4311,4975
4371,5050
4356,5029
4384,5031
4354,5020
4288,4954
4264,4936
4201,4867
4207,4836
4179,4831
4130,4792
4147,4810
4134,4800
4215,4847
4298,4960
4294,4969
4359,5032
4337,5014
4431,5078
4609,5293
4882,5589
5200,5915
5563,6308
6000,6740
6644,7431
7609,8447
8632,9521
9972,10953
11531,12593
12449,13514
12796,14048
13456,14730
14507,15873
15421,16726
15711,17069
16265,17647
17204,18745
17876,19471
18139,19746
17654,19255
16979,18539
16979,18539
16214,17706
15053,16469
13495,14770
11952,13131
11785,12861
16145,17452
20267,21871
23457,25399
27352,29560
32032,34373
37247,39952
41658,44802
40680,43771
30738,32668
18833,20101
9615,10418
3484,4192
1544,1967
1248,1645
1234,1607
1268,1642
1269,1654
1288,1673
1288,1685
1274,1648
1287,1651
1278,1645
1285,1645
1301,1678
1301,1664
1332,1698
1323,1701
1327,1700
1351,1740
1348,1723
1369,1740
1349,1723
1334,1699
1335,1712
1330,1694
1345,1716
1362,1734
1390,1757
1398,1769
1390,1758
1421,1800
1432,1823
1444,1838
1464,1865
1472,1878
1472,1878
1526,1947
1669,2122
1893,2382
2152,2686
2348,2919
2509,3110
2740,3373
3418,4120
4075,4862
3801,4562
3671,4417
3734,4482
3956,4732
4105,4900
4105,4902
4162,4970
4241,5065
4253,5075
4134,4947
4081,4887
4054,4861
4009,4810
3985,4784
3935,4727
3918,4705
3916,4701
3912,4696
3905,4687
3907,4691
3908,4691
3910,4698
3897,4682
3850,4628
3748,4514
3644,4398
3579,4325
3541,4284
3525,4264
3512,4247
3487,4223
3496,4229
3576,4311
3599,4321
3514,4205
3472,4138
3386,4025
3112,3719
2994,3597
3206,3847
3369,4050
3220,3907
2997,3664
2721,3358
2524,3126
2463,3054
2528,3126
2528,3126
2642,3259
2774,3410
2832,3481
2846,3501
2845,3501
2911,3585
3045,3736
3190,3899
3309,4038
3422,4163
3599,4361
3790,4574
4130,4943
4629,5473
5500,6398
6512,7490
7474,8516
8621,9717
9996,11173
11376,12616
12992,14328
15418,16782
17950,19311
19809,21027
19805,20924
20085,21064
18798,19549
14320,14836
13759,14229
13835,14362
13870,14416
14039,14589
14262,14828
14141,14691
13343,13862
12190,12657
10264,10588
8584,8717
7626,7673
7227,7212
6481,6287
4980,4539
3138,2806
2136,2055
1748,1837
1626,1784
1559,1751
1477,1724
1477,1724
1445,1718
1444,1730
1435,1737
1428,1736
1411,1741
1395,1756
1412,1805
1451,1875
1485,1934
1517,1984
1560,2039
1639,2129
1676,2169
1686,2180
1694,2187
1683,2177
1696,2186
1697,2190
1694,2184
1699,2191
1697,2190
1693,2190
1683,2178
1676,2170
1687,2184
1688,2187
1692,2193
1706,2210
1721,2229
1740,2255
1762,2282
1790,2318
1817,2351
1832,2371
1859,2400
1863,2406
1874,2418
1885,2431
1911,2460
1931,2484
1940,2493
1950,2506
1961,2518
1970,2533
1973,2540
1967,2533
1981,2547
2012,2583
2040,2609
2061,2634
2067,2639
2087,2663
2115,2691
2138,2719
2166,2749
2178,2761
2188,2770
2191,2777
2191,2777
2202,2788
2220,2806
2231,2819
2246,2834
2257,2845
2258,2845
2262,2851
2258,2844
2264,2845
2266,2852
2265,2850
2265,2848
2264,2850
2271,2851
2264,2848
2257,2838
2253,2834
2244,2825
2244,2818
2246,2824
2249,2827
2259,2836
2261,2835
2268,2841
2271,2846
2271,2849
2277,2854
2273,2851
2281,2856
2283,2863
2284,2870
2295,2879
2298,2884
2302,2884
2300,2887
2294,2883
2299,2887
2297,2885
2302,2890
2303,2896
2309,2901
2315,2907
2315,2910
2319,2912
2321,2919
2322,2921
2326,2926
2326,2926
2331,2934
2338,2937
2339,2944
2338,2944
2345,2954
2342,2954
2350,2958
2350,2967
2351,2967
2361,2978
2360,2979
2365,2983
2368,2993
2371,2998
2379,3002
2374,3003
2379,3005
2381,3012
2380,3008
2386,3012
2382,3013
2384,3013
2386,3014
2385,3014
2385,3013
2381,3010
2378,3006
2378,3005
2372,3001
2374,3001
2370,3000
2370,3002
2375,3012
2376,3013
2382,3016
2384,3022
2386,3027
2392,3032
2389,3029
2396,3032
2393,3032
2391,3030
2393,3036
2389,3027
2393,3030
2387,3025
2386,3023
2384,3022
2382,3016
2380,3017
2378,3015
2377,3012
2377,3016
2377,3012
2383,3018
2384,3021
2382,3016
2385,3023
2381,3018
2381,3018
2387,3023
2382,3022
2384,3020
2385,3027
2384,3026
2391,3031
2389,3030
2384,3027
2389,3032
2388,3027
2394,3034
2392,3032
2391,3031
2393,3035
2392,3032
2394,3034
2391,3032
2394,3032
2395,3038
2396,3036
2399,3037
2398,3039
2396,3039
2401,3046
2401,3045
2406,3051
2407,3051
2407,3047
2413,3053
2409,3050
2410,3053
2410,3052
2408,3051
2413,3055
2411,3050
2416,3057
2411,3051
2409,3050
2412,3053
2410,3051
2411,3054
2413,3056
2411,3054
2416,3056
2414,3056
2415,3059
2417,3061
2417,3063
2417,3063
2423,3066
2420,3065
2422,3069
2422,3067
2421,3066
2426,3071
2422,3070
2422,3071
2423,3071
2421,3067
2426,3069
2422,3068
2424,3072
2422,3068
2421,3065
2425,3069
2420,3065
2426,3072
2423,3071
2421,3068
2423,3071
2421,3066
2424,3073
2426,3071
2420,3067
2423,3070
2422,3067
2423,3069
2423,3069
2420,3066
2425,3069
2420,3065
2423,3070
2421,3067
2418,3065
2425,3071
2422,3067
2424,3068
2422,3068
2419,3063
2426,3070
2428,3073
2439,3083
2439,3085
2423,3067
2393,3035
2350,2985
2316,2952
2302,2933
2284,2915
2276,2909
2272,2903
2278,2910
2278,2911
2276,2908
2275,2908
2274,2907
2283,2916
2283,2916
2286,2920
2289,2925
2297,2937
2305,2944
2320,2959
2329,2969
2337,2978
2345,2991
2346,2990
2350,2995
2347,2994
2350,2993
2353,2998
2352,2998
2357,3002
2359,3005
2358,3002
2363,3008
2361,3005
2365,3009
2363,3009
2361,3007
2365,3013
2362,3010
2366,3012
2362,3011
2363,3008
2366,3013
2365,3011
2367,3014
2365,3013
2365,3013
2368,3017
2366,3014
2367,3016
2368,3017
2365,3015
2371,3020
2365,3017
2372,3022
2369,3020
2368,3018
2370,3021
2370,3021
2369,3021
2371,3022
2370,3019
2372,3025
2372,3025
2369,3022
2371,3023
2373,3025
2371,3024
2374,3030
2376,3027
2377,3030
2373,3027
2378,3034
2375,3030
2375,3030
2380,3034
2378,3031
2375,3032
2379,3036
2377,3035
2378,3037
2381,3038
2377,3035
2379,3041
2379,3039
2381,3041
2382,3039
2379,3038
2383,3044
2378,3039
2382,3043
2381,3040
2380,3039
2383,3044
2381,3039
2383,3043
2381,3041
2382,3041
2385,3045
2383,3044
2383,3043
2383,3045
2380,3041
2387,3048
2384,3045
2385,3046
2385,3046
2380,3044
2387,3050
2382,3046
2387,3045
2384,3045
2382,3044
2385,3046
2382,3044
2387,3045
2383,3045
2380,3042
2380,3042
2378,3039
2379,3037
2376,3037
2373,3034
2374,3034
2374,3034
2373,3029
2372,3028
2371,3029
2366,3025
2371,3029
2368,3027
2370,3026
2371,3027
2368,3024
2369,3026
2366,3025
2369,3024
2371,3028
2369,3027
2373,3028
2369,3026
2372,3025
2371,3029
2370,3027
2375,3032
2373,3033
2374,3032
2374,3035
2369,3034
2373,3036
2369,3036
2375,3040
2379,3047
2382,3049
2379,3043
2377,3040
2367,3025
2360,3019
2351,3007
2354,3001
2342,2990
2341,2982
2341,2981
2339,2973
2340,2968
2330,2956
2328,2949
2335,2962
2342,2964
2361,2979
2372,2992
2372,2992
2392,3008
2405,3016
2430,3036
2475,3083
2569,3174
2643,3255
2683,3289
2726,3331
2762,3370
2809,3420
2845,3465
2864,3481
2864,3481
2878,3504
2869,3499
2870,3504
2875,3517
2876,3523
2878,3530
2868,3527
2839,3498
2812,3474
2795,3456
2790,3451
2784,3448
2773,3438
2766,3437
2760,3429
2772,3445
2794,3476
2811,3492
2836,3518
2840,3519
2852,3531
2864,3537
2872,3534
2880,3534
2845,3489
2800,3433
2769,3394
2748,3364
2725,3334
2682,3286
2644,3242
2566,3157
2468,3052
2378,2955
2276,2848
2133,2698
2030,2589
1959,2513
1899,2447
1853,2398
1847,2392
1847,2387
1802,2329
1755,2265
1722,2213
1715,2196
1715,2196
1697,2165
1667,2119
1645,2091
1614,2056
1595,2036
1572,2010
1547,1982
1517,1947
1473,1904
1445,1873
1414,1841
1386,1809
1375,1790
1348,1766
1353,1770
1361,1775
1377,1791
1440,1854
1487,1918
1553,1987
1598,2038
1635,2098
1680,2186
1683,2290
1622,2375
1580,2523
1553,2747
1552,3094
1587,3561
1684,4075
1832,4630
2011,4905
2155,5058
2344,5535
2695,6764
3638,9739
5505,15134
6986,18848
6551,18164
6268,17779
6200,17992
6372,18886
6934,20930
7175,22168
7262,23275
8237,26633
10094,32644
13892,45047
21487,2115
11144,36933
7583,25487
7013,28222
7792,34588
9244,42510
11288,52799
13183,59588
12974,56858
12457,54619
12334,54054
12334,54054
12623,55294
13087,57346
13161,57705
12944,56757
12822,56230
12897,56528
13096,57406
13124,57565
13040,57193
13013,57061
13068,57262
13130,57555
13084,57367
13082,57357
13112,57484
13100,57451
13102,57435
13111,57466
13100,57437
13108,57469
13107,57461
13109,57465
13106,57441
13104,57461
13103,57467
13105,57458
13110,57475
13103,57463
13108,57474
13108,57462
13107,57465
13112,57465
13108,57460
13111,57476
13106,57470
13106,57468
13106,57467
13105,57465
13107,57480
13108,57476
13109,57487
13108,57465
13109,57475
13112,57476
13110,57473
13111,57474
13112,57480
13108,57467
13108,57467
13111,57480
13105,57466
13110,57479
13111,57489
13107,57468
13111,57478
13107,57490
13111,57467
13113,57479
13109,57477
13116,57484
13111,57478
13112,57479
13109,57475
13110,57481
13117,57493
13111,57468
13112,57490
13110,57471
13112,57486
13112,57483
13111,57477
13113,57479
13111,57483
13111,57487
13108,57483
13108,57484
13110,57470
13115,57477
13112,57483
13111,57486
13112,57486
13110,57492
13111,57483
13110,57481
13110,57485
13114,57488
13114,57491
13111,57484
13111,57489
13110,57483
13112,57496
13114,57488
13112,57491
13107,57489
13116,57482
13112,57477
13111,57486
13115,57498
13112,57488
13116,57499
13109,57485
13114,57497
13112,57490
13110,57491
13114,57482
13113,57484
13117,57484
13117,57484
13112,57486
13110,57486
13115,57491
13114,57493
13113,57477
13117,57480
13115,57467
13117,57486
13112,57489
13116,57500
13112,57496
13112,57480
13114,57486
13111,57482
13113,57487
13115,57494
13112,57487
13116,57504
13112,57485
13117,57495
13116,57501
13111,57492
13116,57491
13114,57492
13113,57485
13115,57494
13113,57481
13117,57509
13110,57501
13112,57486
13114,57497
13114,57495
13116,57501
13113,57478
13119,57489
13112,57479
13111,57493
13116,57501
13115,57485
13115,57506
13110,57494
13112,57494
13115,57503
13113,57485
13116,57494
13114,57502
13112,57497
13116,57495
13116,57495
13115,57493
13112,57481
13112,57511
13115,57514
13113,57503
13116,57493
13111,57497
13118,57515
13113,57494
13115,57500
13113,57498
13113,57491
13113,57511
13113,57498
13117,57502
13114,57504
13115,57506
13113,57497
13115,57499
13117,57511
13115,57497
13120,57496
13117,57498
13116,57499
13121,57506
13114,57497
13116,57509
13112,57507
13116,57500
13118,57507
13117,57495
13119,57508
13115,57496
13118,57507
13112,57501
13114,57501
13116,57513
13117,57503
13117,57505
13115,57501
13114,57511
13114,57515
13115,57496
13115,57500
13116,57498
13119,57507
13114,57489
13118,57525
13114,57500
13114,57502
13113,57515
13116,57508
13121,57514
13115,57515
13120,57518
13114,57506
13116,57513
13115,57514
13118,57511
13114,57508
13117,57496
13117,57496
13118,57508
13120,57515
13113,57504
13117,57518
13116,57516
13120,57523
13119,57511
13121,57514
13118,57501
13117,57513
13113,57514
13119,57521
13115,57511
13123,57526
13118,57509
13115,57510
13121,57515
13114,57509
13122,57518
13119,57515
13121,57531
13118,57510
13120,57514
13115,57521
13120,57525
13117,57521
13116,57510
13124,57521
13121,57507
13124,57532
13120,57516
13122,57528
13117,57508
13123,57525
13117,57515
13118,57512
13120,57515
13116,57529
13120,57523
13119,57507
13116,57520
13117,57523
13117,57510
13118,57521
13120,57524
13115,57524
13119,57513
13119,57513
13115,57520
13118,57530
13122,57518
13117,57515
13121,57529
13119,57525
13119,57529
13120,57520
13119,57518
13123,57532
13117,57516
13119,57523
13125,57529
13121,57533
13121,57527
13121,57517
13123,57534
13118,57522
13116,57525
13122,57516
13121,57518
13124,57526
13121,57522
13125,57525
13122,57518
13125,57523
13121,57525
13122,57520
13123,57527
13120,57531
13123,57526
13125,57530
13125,57537
13118,57513
13122,57531
13119,57511
13123,57519
13126,57517
13120,57528
13125,57531
13122,57509
13123,57534
13118,57523
13123,57538
13118,57524
13117,57533
13123,57542
13121,57513
13122,57529
13121,57525
13126,57534
13126,57527
13121,57538
13120,57526
13122,57535
13117,57528
13122,57529
13122,57529
13123,57545
13123,57545
13126,57536
13121,57528
13124,57538
13125,57523
13124,57534
13125,57544
13126,57513
13123,57531
13122,57529
13125,57533
13123,57533
13120,57527
13128,57539
13122,57528
13125,57542
13122,57529
13122,57526
13121,57538
13124,57538
13121,57523
13125,57532
13123,57538
13128,57547
13126,57545
13125,57538
13125,57534
13124,57534
13121,57527
13126,57538
13120,57538
13123,57531
13125,57535
13120,57533
13123,57538
13121,57546
13125,57533
13127,57534
13126,57543
13127,57547
13123,57525
13126,57543
13124,57542
13128,57542
13126,57535
13125,57533
13127,57538
13127,57542
13123,57536
13129,57542
13126,57535
13126,57535
13125,57525
13128,57542
13127,57533
13127,57551
13124,57531
13125,57544
13129,57550
13127,57534
13127,57545
13126,57542
13132,57546
13123,57536
13126,57545
13124,57543
13129,57550
13125,57537
13123,57542
13124,57538
13126,57539
13128,57541
13126,57539
13130,57550
13125,57536
13126,57540
13127,57549
13124,57539
13124,57524
13129,57549
13125,57533
13126,57549
13125,57521
2666,3336
2607,3264
2537,3180
2444,3073
2359,2975
2312,2920
2243,2835
2197,2777
2197,2777
2111,2682
2033,2592
1970,2521
1877,2409
1790,2288
1691,2172
1614,2078
1555,2000
1466,1889
1436,1829
1409,1806
1383,1781
1387,1779
1356,1746
1365,1729
1341,1721
1321,1703
1344,1718
1320,1701
1340,1694
1330,1703
1321,1700
1369,1742
1461,1875
2411,2975
8069,9283
24257,26119
47997,50461
47473,50959
42723,45915
47354,50202
55644,57608
56063,57980
57270,60905
56652,61785
56511,62481
57706,64345
59162,899
60690,3141
61646,4593
62370,5763
62742,6469
62715,6570
58999,3164
58126,2206
58830,2902
59408,3357
59720,3557
59720,3557
59797,3387
59732,3050
59754,2992
59768,3032
59556,2877
45056,53248
21229,25508
20666,24791
24660,29467
28050,33338
34574,40573
42059,49481
47603,55474
53310,61543
58798,1954
62284,5782
63036,6935
63311,7190
63323,7000
64446,8122
178,9546
285,9669
395,9909
503,10150
615,10316
781,10691
1096,11178
1444,11741
1701,12106
1908,12342
1953,12494
1962,12510
2017,12585
2113,12771
2191,12907
2317,13125
2521,13359
2608,13490
2780,13731
2932,13972
3100,14250
3336,14566
3471,14772
3562,14829
3640,14937
3749,15167
3885,15447
4042,15733
4073,15980
4136,16119
4235,16264
4394,16475
4551,16731
4683,16917
4799,17110
4865,17229
4780,17002
3655,15066
65203,11086
62261,7753
62127,7571
62696,8165
63439,8919
63906,9396
64325,9839
64800,10354
65281,10862
396,11649
1146,12586
1442,13029
1601,13329
1790,13562
2102,13849
2420,14107
2692,14341
2848,14447
2848,14447
2846,14223
3019,14114
3052,13718
3169,13819
3478,14255
3915,14894
4194,15437
4403,15796
4396,15847
4461,15950
4395,15905
4250,15726
4168,15592
4291,15804
4428,16064
4594,16339
4906,16734
5046,16889
4904,16602
4738,16202
4564,15781
4611,15760
4808,16030
5045,16376
5308,16785
5470,17047
5524,17169
5483,17152
5398,17044
5412,17055
5543,17301
5665,17476
5792,17661
5886,17779
5991,17947
6152,18177
6323,18425
6404,18487
6338,18352
6304,18253
6327,18247
6388,18362
6483,18495
6549,18617
6617,18796
6708,19078
6779,19274
6805,19347
6806,19355
6791,19367
6727,19275
6707,19263
6672,19234
6728,19305
6813,19448
6857,19528
6949,19735
6994,19876
6938,19818
6772,19614
6646,19488
6510,19413
6469,19401
6513,19487
6572,19584
6572,19584
6559,19545
6610,19726
6641,19846
6733,19986
6852,20165
6919,20275
6974,20309
6963,20315
6959,20269
6918,20153
6756,19750
6423,19095
6196,18655
6064,18467
6032,18458
6068,18520
6152,18660
6173,18686
6198,18780
6263,18896
6332,19010
6391,19095
6543,19334
6639,19478
6674,19564
6710,19625
6723,19666
6736,19701
6713,19688
6677,19631
6596,19481
6519,19323
6459,19206
6413,19153
6414,19119
6335,19022
6324,19001
6343,19030
6363,19091
6415,19200
6413,19211
6352,19158
6304,19088
6293,19071
6260,19028
6266,19002
6251,19007
6267,19015
6282,19040
6282,19040
6316,19093
6332,19097
6331,19115
6352,19151
6368,19194
6386,19193
6392,19228
6400,19222
6384,19225
6357,19207
6360,19196
6352,19194
6326,19192
6317,19159
6273,19107
6258,19082
6243,19094
6251,19111
6253,19149
6209,19073
6123,18984
6033,18866
5967,18799
5909,18721
5829,18567
5787,18391
5762,18278
5754,18235
5762,18252
5751,18289
5787,18325
5809,18330
5841,18395
5832,18456
5879,18533
5924,18672
5992,18792
6063,18916
6118,19014
6140,19054
6128,19037
6067,18979
6009,18871
5975,18823
5981,18836
5977,18826
5963,18814
5978,18900
6021,18991
6010,18961
5969,18878
6002,18971
6013,19022
6018,19051
5982,18963
5937,18866
5921,18786
5948,18852
5982,18922
6010,18978
6010,18978
6018,18999
6026,19017
6066,19072
6128,19160
6214,19297
6312,19475
6352,19536
6461,19641
6570,19807
6706,19998
6836,20163
6856,20218
6845,20195
6838,20195
6853,20194
6866,20231
6844,20219
6836,20192
6794,20142
6764,20083
6699,20005
6683,19980
6670,19962
6669,19962
6653,19947
6639,19941
6647,19945
6661,19933
6650,19959
6632,19946
6643,19970
6617,19926
6610,19935
6586,19933
6595,19918
6594,19930
6604,19935
6616,19964
6609,19956
6614,19973
6575,19924
6538,19875
6487,19825
6455,19752
6415,19698
6393,19673
6393,19673
6417,19707
6406,19698
6423,19734
6417,19752
6427,19796
6442,19801
6451,19819
6436,19799
6458,19822
6455,19827
6459,19825
6440,19776
6409,19730
6349,19649
6346,19635
6351,19629
6351,19633
6341,19660
6331,19619
6331,19632
6320,19626
6304,19625
6276,19601
6272,19587
6264,19573
6245,19537
6240,19534
6238,19507
6239,19532
6228,19503
6244,19545
6256,19586
6245,19571
6262,19587
6263,19610
6258,19612
6282,19629
6269,19608
6255,19619
6248,19590
6239,19614
6258,19613
6219,19592
6225,19582
6199,19546
6205,19507
6195,19497
6188,19480
6187,19516
6185,19520
6189,19508
6189,19503
6183,19514
6180,19523
6173,19500
6140,19463
6145,19459
6151,19446
6135,19430
6135,19430
6147,19451
6140,19436
6150,19479
6156,19465
6145,19477
6144,19479
6146,19476
6159,19508
6154,19526
6158,19527
6169,19538
6133,19520
6146,19518
6123,19498
6126,19484
6125,19496
6126,19489
6133,19484
6106,19432
6106,19431
6092,19444
6108,19465
6118,19470
6117,19481
6102,19468
6090,19470
6108,19489
6116,19480
6134,19483
6114,19467
6122,19478
6118,19452
6093,19443
6092,19445
6078,19465
6092,19458
6095,19463
6077,19453
6090,19458
6073,19459
6087,19468
6077,19479
6079,19464
6077,19488
6075,19480
6099,19511
6101,19511
6124,19552
6124,19552
6103,19535
6115,19561
6114,19518
6107,19536
6110,19548
6139,19578
6129,19592
6116,19557
6105,19552
6110,19558
6088,19532
6108,19538
6084,19533
6081,19532
6085,19554
6102,19542
6099,19552
6092,19542
6099,19588
6099,19567
6111,19594
6121,19580
6121,19627
6122,19633
6119,19615
6135,19633
6117,19642
6130,19653
6115,19634
6127,19637
6115,19662
6120,19652
6125,19656
6123,19631
6107,19595
6118,19611
6104,19610
6124,19624
6112,19635
6118,19653
6104,19654
6118,19659
6118,19668
6129,19667
6130,19677
6123,19669
6137,19692
6116,19692
6139,19685
6135,19716
6140,19708
6142,19736
6153,19772
6148,19737
6151,19736
6149,19729
6150,19746
6132,19710
6125,19726
6125,19726
6149,19746
6156,19790
6222,19895
6256,19921
6283,19998
6290,19970
6286,19988
6251,19902
6230,19831
6243,19835
6230,19832
6243,19883
6257,19922
6283,19962
6285,20001
6272,19976
6286,20000
6253,19938
6233,19902
6189,19874
6194,19859
6192,19841
6204,19824
6194,19825
6219,19845
6199,19869
6209,19894
6222,19860
6212,19868
6203,19866
6235,19933
6235,19935
6245,19983
6270,20006
6279,20020
6283,20011
6270,20019
6294,20031
6278,20030
6246,19974
6244,19936
6262,19984
6283,20022
6320,20069
6317,20100
6371,20170
6371,20170
6419,20249
6528,20420
6665,20582
6715,20615
6562,20322
6416,19994
6395,20001
6456,20110
6473,20156
6400,20033
6265,19778
6201,19585
6180,19436
6150,19358
6142,19390
6121,19424
6137,19454
6137,19492
6161,19569
6189,19679
6209,19790
6215,19803
6237,19876
6245,19932
6224,19929
6252,19927
6253,19930
6294,19997
6282,20043
6291,20015
6298,19990
6292,19970
6306,19938
6340,19880
6343,19817
6324,19725
6282,19565
6253,19415
6213,19191
6160,18969
6178,18954
6174,18919
6184,18863
6191,18916
6230,18980
6291,19115
6320,19228
6393,19393
6416,19531
6458,19619
6511,19777
6550,19864
6534,19874
6470,19748
6350,19546
6293,19360
6287,19352
6335,19438
6382,19564
6382,19564
6392,19600
6433,19647
6426,19615
6400,19480
6352,19385
6325,19303
6280,19141
6131,18837
5995,18492
5869,18166
5741,17914
5687,17774
5637,17681
5629,17597
5600,17571
5579,17553
5604,17625
5615,17687
5666,17845
5700,17947
5719,18027
5757,18072
5768,18148
5762,18123
5661,17882
5397,17244
5179,16679
5053,16319
5004,16267
4984,16230
4996,16271
5015,16301
5051,16408
5146,16618
5208,16832
5287,17002
5305,17080
5281,17056
5226,17020
5171,16950
5134,16890
5131,16877
5127,16905
5164,16995
5186,17092
5217,17178
5270,17309
5294,17399
5294,17399
5347,17541
5389,17655
5428,17760
5477,17904
5543,18028
5613,18161
5653,18248
5630,18194
5590,18086
5540,17995
5556,18008
5601,18131
5642,18246
5699,18343
5714,18424
5744,18472
5743,18516
5741,18521
5739,18541
5722,18508
5720,18520
5704,18491
5693,18513
5713,18520
5686,18476
5688,18494
5662,18486
5677,18481
5683,18523
5679,18504
5713,18540
5708,18542
5716,18570
5721,18567
5734,18581
5735,18593
5740,18584
5738,18565
5737,18562
5811,18710
5927,18945
6049,19162
6142,19337
6201,19464
6296,19618
6362,19775
6421,19836
6452,19912
6451,19894
6436,19906
6416,19898
6389,19839
6373,19805
6339,19761
6319,19744
6301,19704
6272,19716
6272,19716
6254,19682
6239,19656
6220,19631
6196,19595
6183,19571
6144,19531
6122,19490
6082,19398
6023,19326
5951,19184
5915,19081
5912,19031
5883,19019
5876,19034
5898,19047
5897,19048
5919,19073
5901,19070
5908,19103
5917,19089
5924,19107
5898,19083
5891,19083
5900,19100
5930,19136
5965,19192
5999,19244
6028,19338
6070,19350
6070,19370
6088,19393
6079,19405
6092,19399
6077,19422
6107,19431
6114,19443
6072,19338
5924,19029
5649,18369
5479,17895
5418,17745
5461,17844
5546,18021
5633,18241
5675,18387
5716,18516
5742,18584
5773,18676
5773,18676
5776,18721
5782,18758
5796,18780
5810,18792
5825,18824
5783,18788
5827,18823
5853,18890
5957,19058
6123,19312
6123,19312
6328,19616
6520,19921
6739,20185
6893,20392
7002,20497
7088,20594
7148,20638
7210,20616
7287,20586
7436,20656
7540,20764
7632,20892
7707,20982
7738,21012
7777,21075
7858,21174
7927,21248
7990,21310
8020,21326
8056,21301
8091,21318
8139,21341
8186,21473
8140,21483
8035,21410
7798,21146
7482,20778
7113,20323
6767,19820
6461,19428
6150,19019
5791,18538
5439,18096
5156,17666
4907,17375
4667,17101
4248,16576
3752,16159
3621,15971
3662,15964
3730,15879
3678,15692
3650,15423
3678,15353
3598,15177
3567,15160
3520,15007
3678,15190
3678,15190
4032,15686
4201,15909
4269,15996
4438,16241
4576,16424
4808,16705
5340,17410
5712,17911
5894,18113
5960,18181
5920,18133
5746,17952
5531,17677
5782,18039
5919,18223
5868,18145
5751,17953
5635,17802
5598,17721
5637,17799
5679,17900
5742,17987
5844,18145
6069,18471
6280,18748
6402,18929
6495,19033
6554,19065
6532,19025
6546,19037
6571,19053
6575,19078
6610,19097
6590,19067
6593,19069
6578,19055
6603,19077
6653,19159
6685,19211
6732,19271
6761,19332
6809,19392
6842,19431
6861,19473
6887,19524
6883,19541
6883,19541
6935,19600
6984,19677
7027,19730
7036,19744
7061,19778
7081,19836
7104,19873
7122,19905
7144,19915
7144,19915
7125,19881
7102,19829
7084,19816
7088,19832
7080,19802
7083,19822
7063,19830
7075,19810
7079,19837
7088,19830
7068,19816
7066,19797
7072,19799
7062,19792
7096,19841
7121,19879
7134,19871
7093,19822
7093,19768
7081,19724
7085,19773
7117,19794
7134,19850
7138,19874
7150,19880
7136,19874
7146,19866
7151,19880
7136,19879
7135,19863
7122,19841
7099,19822
7081,19790
7044,19746
7032,19753
7024,19715
7002,19728
6954,19660
6930,19647
6926,19657
6954,19668
6931,19659
6915,19649
6926,19645
6892,19621
6886,19599
6886,19599
6872,19570
6871,19586
6864,19570
6888,19607
6909,19652
6915,19664
6911,19662
6931,19675
6941,19703
6947,19701
6965,19737
6958,19734
6968,19749
6965,19754
6965,19759
6999,19799
6999,19813
7017,19823
7024,19839
7024,19857
7049,19872
7058,19897
7049,19907
7055,19915
7044,19905
7048,19904
7019,19885
7023,19901
7020,19891
7038,19925
7045,19916
7038,19904
7022,19897
7037,19868
7027,19857
7020,19868
7027,19882
7063,19907
7037,19904
7050,19911
7049,19924
7036,19941
7033,19909
7031,19928
7009,19906
7016,19896
7012,19883
7031,19908
7018,19924
7027,19921
7040,19907
7028,19925
7022,19901
7028,19920
7011,19910
7017,19914
7025,19909
7026,19931
7027,19921
7009,19903
7009,19903
7023,19922
7011,19930
7031,19938
7014,19919
7011,19883
7002,19874
6982,19854
6985,19865
7008,19876
7003,19897
7013,19896
7002,19895
7004,19910
7019,19945
7031,19956
7043,19951
7038,19951
7037,19961
7023,19959
7038,19962
7039,19971
7049,19989
7073,20003
7058,20000
7059,20007
7048,19993
7061,19989
7046,19981
7046,19968
7026,19949
7016,19930
7030,19944
7026,19924
7033,19926
6992,19899
6978,19867
6969,19810
6951,19806
6947,19778
6945,19768
6936,19749
6937,19792
6909,19764
6935,19779
6932,19789
6932,19783
6915,19777
6915,19777
6931,19788
6943,19793
6942,19835
6959,19843
6974,19883
6995,19922
7032,19969
7037,19973
7060,19995
7067,20017
7090,20063
7101,20082
7093,20082
7095,20068
7088,20051
7067,20043
7041,19997
7020,19984
7013,19945
6996,19935
6951,19837
6914,19761
6862,19680
6878,19699
6892,19731
6872,19746
6886,19750
6876,19726
6870,19745
6847,19694
6834,19700
6818,19669
6801,19658
6787,19619
6775,19600
6764,19598
6769,19602
6765,19589
6761,19582
6747,19589
6732,19586
6740,19580
6722,19555
6740,19558
6728,19568
6731,19568
6725,19547
6707,19535
6700,19516
6697,19530
6683,19508
6657,19442
6559,19190
6315,18609
6129,18172
6050,17949
6068,17982
6095,18072
6152,18203
6152,18203
6213,18333
6233,18422
6248,18477
6250,18484
6250,18531
6241,18499
6234,18507
6241,18514
6226,18513
6225,18511
6215,18495
6225,18501
6217,18502
6196,18467
6197,18465
6187,18452
6171,18445
6169,18442
6137,18419
6132,18391
6093,18349
6068,18301
6028,18241
5971,18098
5747,17612
5467,16897
5253,16412
5164,16160
5124,16077
5134,16071
5174,16152
5206,16228
5260,16328
5270,16411
5297,16491
5266,16491
5244,16463
5236,16454
5205,16427
5221,16452
5214,16470
5196,16497
5214,16519
5221,16559
5222,16585
5241,16624
5239,16661
5265,16709
5265,16709
5262,16722
5282,16782
5272,16792
5288,16826
5287,16814
5243,16714
5067,16339
4793,15684
4588,15218
4533,15037
4505,15030
4536,15049
4582,15158
4621,15269
4688,15404
4720,15532
4765,15646
4804,15719
4817,15780
4832,15824
4853,15885
4884,15970
4916,16050
4945,16121
4967,16180
4998,16249
5019,16301
5060,16361
5071,16423
5102,16487
5115,16515
5135,16556
5159,16616
5161,16632
5170,16623
5085,16477
4881,15982
4634,15347
4484,15010
4464,14945
4487,14983
4537,15099
4584,15221
4646,15345
4712,15501
4753,15616
4799,15743
4825,15824
4853,15882
4879,15966
4914,16020
4926,16077
4963,16136
4990,16203
5008,16261
5040,16321
5061,16367
5084,16440
5084,16440
5100,16486
5121,16532
5154,16587
5174,16623
5205,16684
5203,16700
5216,16715
5177,16633
5013,16257
4770,15661
4629,15309
4576,15183
4597,15197
4629,15285
4654,15353
4711,15468
4747,15595
4806,15703
4842,15826
4876,15902
4912,15966
4915,16002
4939,16058
4966,16126
4982,16170
5006,16233
5034,16282
5054,16331
5052,16398
5103,16426
5118,16486
5134,16521
5169,16574
5183,16609
5194,16685
5210,16697
5244,16733
5228,16732
5185,16644
5043,16307
4790,15718
4673,15372
4632,15270
4627,15288
4681,15366
4699,15430
4699,15430
4740,15557
4783,15669
4840,15770
4868,15862
4899,15939
4934,15999
4936,16036
4963,16105
5002,16173
4995,16187
5032,16267
5039,16319
5073,16376
5097,16433
5117,16503
5147,16525
5170,16583
5176,16612
5214,16685
5205,16715
5251,16758
5227,16778
5263,16811
5245,16820
5206,16698
5062,16331
4820,15760
4716,15496
4702,15416
4703,15461
4771,15584
4809,15696
4856,15803
4927,15927
4951,16048
5002,16152
5028,16215
5054,16273
5068,16309
5099,16359
5105,16396
5141,16462
5147,16511
5177,16560
5208,16615
5221,16657
5247,16693
5244,16736
5277,16782
5272,16803
5298,16859
5305,16867
5320,16909
5326,16921
5353,16969
5335,16931
5297,16810
5130,16463
4935,15934
4837,15711
4837,15711
4824,15669
4862,15738
4891,15818
4954,15927
4986,16040
5032,16154
5060,16225
5094,16336
5126,16399
5133,16429
5159,16465
5190,16524
5181,16556
5217,16593
5238,16657
5241,16696
5283,16763
5288,16793
5317,16840
5311,16880
5335,16900
5354,16942
5371,16966
5406,17011
5388,17028
5404,17057
5405,17077
5409,17074
5373,17000
5253,16696
5025,16120
4933,15866
4877,15763
4907,15799
4916,15844
4965,15950
5007,16049
5060,16159
5093,16280
5139,16364
5151,16410
5197,16494
5203,16530
5225,16568
5214,16585
5240,16639
5257,16688
5257,16688
5291,16734
5281,16786
5307,16809
5323,16859
5355,16893
5361,16935
5372,16957
5388,17009
5395,17025
5412,17054
5406,17065
5439,17092
5451,17103
5417,17056
5322,16824
5061,16186
4878,15744
4799,15533
4807,15528
4821,15590
4866,15690
4911,15801
4949,15912
4991,16005
5050,16139
5086,16225
5095,16278
5125,16350
5128,16376
5152,16421
5160,16462
5206,16508
5212,16533
5242,16616
5258,16640
5281,16700
5281,16750
5317,16787
5332,16849
5358,16882
5351,16901
5380,16953
5381,16986
5391,17014
5418,17052
5414,17024
5393,16962
5241,16630
5029,16077
4895,15747
4869,15678
4889,15732
4926,15815
4948,15901
5001,15986
5026,16125
5073,16212
5073,16212
5103,16294
5149,16375
5151,16402
5165,16433
5175,16449
5190,16497
5183,16524
5218,16578
5213,16635
5250,16666
5283,16731
5282,16761
5305,16818
5314,16838
5329,16874
5344,16916
5365,16964
5357,16974
5385,17020
5390,17034
5398,17039
5362,17015
5283,16787
5052,16244
4865,15793
4809,15638
4828,15657
4852,15723
4901,15835
4918,15947
4978,16049
5041,16181
5077,16270
5087,16350
5110,16396
5116,16412
5111,16423
5121,16408
5111,16451
5121,16457
5131,16485
5136,16497
5146,16527
5153,16566
5145,16596
5160,16618
5173,16643
5189,16667
5189,16667
5206,16710
5202,16743
5217,16768
5240,16803
5235,16828
5244,16856
5232,16770
5092,16461
4711,15556
4435,14890
4307,14558
4283,14461
4257,14423
4270,14444
4274,14466
4299,14538
4343,14661
4405,14794
4470,14938
4497,15034
4531,15108
4551,15186
4583,15266
4637,15396
4681,15520
4725,15633
4741,15731
4804,15825
4830,15905
4873,15998
4879,16057
4916,16133
4930,16194
4958,16235
4980,16328
5011,16347
5028,16415
5043,16463
5067,16504
5070,16487
4996,16354
4723,15702
4436,14961
4277,14575
4182,14364
4149,14278
4106,14189
4055,14067
3995,13985
3977,13938
3940,13914
3916,13871
3897,13818
3826,13685
3768,13579
3717,13453
3688,13421
3692,13417
3685,13444
3685,13444
3698,13494
3720,13528
3734,13602
3761,13660
3767,13708
3782,13740
3799,13804
3791,13793
3806,13839
3799,13850
3828,13933
3872,14010
3887,14079
3819,13906
3533,13238
3287,12657
3115,12241
3005,12078
2948,11968
2903,11888
2891,11843
2864,11845
2868,11847
2896,11926
2885,11956
2887,11933
2835,11816
2782,11721
2700,11605
2676,11521
2646,11461
2646,11465
2607,11454
2619,11451
2633,11500
2657,11561
2682,11632
2687,11641
2698,11684
2698,11721
2727,11790
2735,11857
2782,11945
2819,12016
2827,12057
2746,11888
2550,11445
2550,11445
2325,10960
2150,10489
2017,10174
1925,10003
1877,9899
1854,9853
1848,9883
1853,9916
1885,9997
1902,10075
1934,10136
1947,10164
1941,10153
1906,10126
1895,10100
1901,10093
1909,10146
1943,10205
1970,10306
2010,10401
2052,10514
2107,10650
2176,10778
2224,10899
2274,11003
2321,11120
2372,11253
2440,11418
2484,11540
2551,11658
2568,11709
2452,11467
2237,10937
2019,10444
1893,10087
1781,9861
1738,9783
1724,9767
1753,9816
1768,9867
1814,9951
1865,10095
1922,10205
1974,10309
1966,10319
1972,10337
1963,10338
1967,10335
2011,10391
2043,10493
2097,10632
2150,10737
2220,10906
2282,11050
2348,11210
2420,11372
2498,11545
2498,11545
2631,11862
2631,11862
2711,12039
2786,12196
2862,12368
2907,12513
2965,12626
2896,12474
2627,11844
2414,11298
2295,10969
2232,10848
2231,10815
2230,10878
2287,10959
2316,11076
2380,11188
2443,11357
2517,11514
2557,11614
2567,11642
2571,11636
2560,11606
2576,11620
2591,11672
2634,11779
2701,11910
2774,12071
2817,12183
2879,12329
2923,12453
2996,12572
3068,12733
3110,12855
3168,12989
3230,13142
3287,13254
3335,13384
3378,13461
3344,13389
3069,12754
2755,12000
2590,11566
2479,11330
2446,11227
2439,11210
2453,11243
2468,11296
2487,11395
2487,11395
2539,11501
2589,11629
2607,11692
2630,11720
2593,11647
2583,11631
2605,11683
2626,11729
2655,11819
2655,11819
2711,11945
2775,12066
2832,12216
2888,12335
2950,12487
3002,12618
3058,12754
3124,12903
3192,13041
3241,13145
3297,13293
3335,13391
3249,13180
2928,12445
2656,11812
2542,11472
2463,11316
2432,11276
2427,11261
2433,11260
2442,11286
2472,11379
2509,11485
2577,11640
2600,11722
2610,11720
2584,11693
2575,11664
2582,11666
2593,11702
2613,11764
2641,11840
2696,11955
2750,12060
2785,12163
2837,12254
2885,12356
2925,12453
2988,12610
3041,12710
3099,12883
3149,12994
3184,13087
3252,13181
3086,12867
2755,12103
2755,12103
2503,11499
2331,11097
2218,10856
2147,10704
2103,10618
2084,10568
2076,10573
2087,10594
2117,10701
2157,10771
2148,10813
2149,10801
2134,10764
2093,10708
2104,10696
2099,10733
2114,10777
2171,10866
2188,10942
2238,11005
2269,11094
2309,11186
2334,11285
2383,11354
2417,11440
2447,11535
2506,11650
2545,11746
2591,11837
2605,11906
2567,11819
2354,11370
2143,10863
1933,10396
1809,10083
1728,9912
1680,9826
1658,9811
1645,9765
1641,9792
1679,9851
1732,9983
1770,10055
1785,10102
1786,10073
1772,10069
1754,10063
1780,10092
1780,10092
1845,10249
1883,10335
1915,10438
1969,10549
2026,10649
2077,10758
2105,10851
2134,10914
2160,10966
2216,11085
2255,11193
2255,11193
2315,11301
2355,11401
2385,11420
2244,11174
2023,10690
1814,10203
1632,9858
1538,9630
1500,9531
1471,9499
1481,9500
1469,9506
1514,9557
1539,9648
1561,9700
1577,9731
1556,9716
1535,9679
1504,9632
1496,9586
1482,9588
1493,9585
1515,9634
1534,9695
1545,9745
1571,9779
1595,9855
1635,9925
1676,9997
1712,10087
1748,10178
1776,10252
1825,10338
1839,10408
1816,10357
1684,10080
1477,9648
1271,9195
1097,8838
1018,8654
992,8585
984,8567
1013,8615
1035,8657
1073,8754
1122,8868
1174,9001
1174,9001
1203,9061
1211,9064
1215,9062
1221,9096
1217,9090
1265,9163
1295,9224
1337,9365
1398,9468
1454,9604
1503,9704
1556,9818
1630,9937
1664,10050
1726,10194
1776,10325
1839,10441
1900,10560
1944,10679
1952,10681
1771,10303
1510,9765
1310,9294
1145,8977
1083,8804
1068,8769
1061,8770
1079,8788
1113,8825
1160,8961
1208,9063
1274,9191
1277,9239
1295,9251
1278,9213
1264,9187
1277,9201
1280,9224
1321,9291
1355,9379
1425,9507
1442,9597
1496,9693
1568,9823
1604,9918
1651,10034
1694,10125
1775,10273
1809,10384
1889,10532
1943,10647
1967,10700
1850,10464
1603,9912
1349,9388
1173,8987
1051,8741
1008,8634
979,8576
979,8576
979,8588
979,8586
1004,8628
1045,8736
1103,8832
1134,8897
1145,8917
1117,8881
1075,8785
1053,8732
1013,8679
987,8612
971,8554
947,8529
948,8550
973,8562
989,8587
990,8638
1030,8678
1059,8743
1109,8833
1214,9039
1297,9244
1401,9423
1451,9543
1446,9526
1317,9274
1150,8898
982,8528
888,8316
846,8239
875,8234
901,8288
919,8355
980,8416
1014,8484
1116,8660
1227,8872
1318,9032
1392,9159
1430,9222
1486,9301
1529,9371
1595,9449
1675,9626
1778,9833
1873,10032
1873,10032
1989,10277
2086,10483
2208,10699
2313,10944
2426,11177
2535,11403
2663,11635
2763,11846
2847,12080
2936,12244
2925,12249
2741,11865
2439,11202
2164,10601
1946,10103
1754,9746
1610,9476
1499,9245
1407,9093
1330,8956
1286,8868
1266,8775
1213,8734
1160,8612
1096,8458
1017,8317
933,8160
896,8145
833,8053
824,8022
806,8004
812,8029
827,8052
842,8084
855,8122
865,8148
903,8210
939,8299
988,8397
1013,8468
1058,8538
1078,8598
1025,8496
882,8190
666,7729
486,7338
353,7075
318,6968
312,6970
343,7037
374,7086
423,7198
483,7314
550,7447
604,7564
627,7608
598,7576
606,7574
606,7574
609,7581
590,7535
600,7547
599,7581
645,7635
665,7680
702,7784
770,7903
862,8105
930,8244
978,8356
1067,8516
1141,8688
1210,8836
1266,8952
1323,9051
1233,8893
1061,8501
848,8056
706,7737
631,7556
620,7531
651,7618
723,7717
801,7857
874,8031
989,8239
1069,8443
1135,8541
1146,8600
1146,8583
1160,8568
1157,8595
1176,8613
1194,8650
1228,8706
1229,8742
1256,8778
1248,8765
1231,8747
1240,8747
1256,8743
1260,8773
1247,8767
1247,8750
1247,8793
1257,8774
1257,8774
1195,8668
1035,8297
827,7820
610,7321
465,7022
403,6879
399,6858
413,6882
455,6954
493,7047
565,7163
619,7298
675,7382
704,7426
715,7455
744,7472
721,7467
748,7497
798,7596
846,7679
913,7808
969,7953
1064,8122
1129,8295
1236,8485
1309,8669
1372,8834
1416,8963
1408,9007
1324,8904
841,8147
64539,5760
61402,2867
59799,948
58549,64847
58510,64440
60270,493
62703,3152
64400,5146
65064,6167
65365,6669
55,7066
289,7592
566,8064
778,8391
936,8698
1083,8997
1324,9444
1654,10029
1999,10683
2357,11379
2308,11606
1515,10888
802,10203
361,9841
212,9799
280,10037
450,10395
679,10796
679,10796
895,11172
1019,11404
1112,11547
1210,11737
1366,11971
1389,11923
1309,11704
1194,11391
1096,11171
1122,11157
1165,11257
1282,11429
1359,11572
1427,11748
1510,11883
1567,12021
1678,12232
1767,12337
1924,12577
1971,12723
1935,12711
1843,12649
1652,12453
1400,12186
1178,11942
892,11546
504,10950
65490,10115
64699,8984
63926,7949
63286,6914
62895,6161
62548,5529
62446,5254
62362,5011
62162,4594
62084,4294
61776,3760
61374,2843
60892,1859
60401,945
59808,65533
59359,64965
59182,64593
59159,64449
59207,64455
59317,64510
59317,64510
59474,64660
59760,64939
60102,65287
60714,418
61579,1449
62220,2290
62797,3093
63330,3902
63841,4605
64325,5389
64703,6054
65080,6711
65460,7395
217,8023
556,8515
831,9067
1146,9600
1474,10181
1790,10733
2097,11203
2284,11509
2405,11702
2392,11674
2364,11457
2271,11169
1801,10773
835,9956
517,9800
473,9983
541,10243
650,10515
773,10871
916,11195
1111,11615
1275,12060
1333,12292
1179,12170
793,11722
476,11491
65437,10932
64865,10383
64438,9940
63970,9450
63606,9041
63522,8907
63440,8812
63168,8525
62663,8054
62243,7621
61946,7283
61714,7038
61524,6835
61657,6987
61896,7286
62157,7565
62325,7735
62287,7680
62480,7881
62619,8021
62619,8021
62737,8155
62810,8248
62947,8422
63086,8575
63119,8595
63133,8591
63090,8555
63030,8466
62951,8333
62811,8209
62484,7840
61933,7211
61113,6204
60067,4885
59131,3587
58124,2166
57034,598
55954,64799
54933,63511
53967,62343
53149,61342
52469,60494
52061,59971
52134,59878
52326,59956
52613,60097
53083,60450
53881,61172
54634,61856
55407,62597
55849,62938
55983,62878
56002,62576
56079,62302
56290,62215
56874,62595
57550,63241
58187,63844
58631,64292
58999,64650
59565,65242
60108,255
60704,955
61304,1633
61788,2274
62439,3059
62439,3059
62934,3715
63414,4282
63932,5041
64368,5712
64761,6341
65083,6880
65344,7350
55,7786
227,8198
411,8456
609,8793
790,9105
964,9380
1109,9697
1234,9930
1333,10175
1430,10391
1536,10592
1586,10753
1514,10634
1326,10162
1021,9526
801,9090
570,8749
442,8512
363,8434
333,8437
300,8451
310,8516
320,8576
299,8653
356,8816
422,9007
420,9120
375,9162
400,9287
407,9437
251,9380
128,9337
141,9467
296,9745
502,10088
754,10493
955,10821
1150,11089
1325,11364
1490,11637
1626,11861
1751,12053
1822,12207
1866,12287
1910,12284
1928,12330
1939,12375
1958,12382
1972,12334
1971,12314
1971,12314
1991,12280
2005,12328
2053,12396
2119,12494
2229,12687
2320,12835
2421,12975
2492,13104
2492,13093
2428,12931
2314,12594
2237,12413
2184,12218
2132,11998
2046,11841
2009,11722
1981,11647
1957,11583
1920,11498
1895,11425
1894,11385
1901,11388
1875,11344
1900,11345
1892,11346
1899,11342
1889,11322
1896,11347
1842,11274
1709,10927
1484,10386
1257,9812
1106,9393
1010,9120
935,8961
910,8911
910,8887
896,8869
930,8938
956,9021
1005,9144
1024,9232
1051,9256
1058,9230
1020,9221
1031,9190
1028,9205
1066,9287
1086,9369
1086,9369
1132,9450
1197,9583
1249,9691
1304,9841
1364,9981
1424,10097
1470,10221
1519,10332
1584,10473
1655,10617
1721,10763
1755,10907
1783,10974
1704,10804
1510,10334
1288,9805
1114,9369
989,9076
924,8929
901,8894
892,8897
923,8932
940,8994
989,9106
1034,9246
1072,9365
1106,9419
1121,9440
1113,9449
1155,9484
1167,9537
1206,9626
1288,9803
1355,9975
1470,10220
1572,10457
1688,10722
1779,10952
1887,11164
1963,11384
2045,11563
2139,11768
2195,11939
2265,12119
2322,12232
2353,12349
2332,12292
2114,11816
1835,11134
1646,10652
1532,10332
1507,10286
1523,10293
1555,10382
1583,10450
1583,10450
1636,10561
1665,10670
1736,10831
1764,10923
1778,10950
1744,10899
1730,10853
1714,10819
1706,10819
1723,10841
1739,10881
1718,10920
1662,10815
1520,10586
1257,10198
925,9660
597,9165
389,8838
226,8594
169,8495
107,8437
145,8510
183,8591
224,8704
208,8661
25,8270
65314,7801
65149,7340
65037,7065
64989,6920
64960,6856
64938,6838
64953,6846
64969,6908
65011,7004
65037,7085
65063,7143
65058,7139
65047,7104
65009,7021
64982,6975
64972,6959
65004,7022
65021,7080
65065,7168
65125,7300
65171,7434
65229,7553
65229,7553
65268,7641
65316,7779
65355,7877
65412,8005
65467,8134
65518,8253
46,8389
112,8516
134,8585
52,8413
65336,7863
65127,7344
64943,6920
64854,6652
64783,6505
64757,6465
64751,6461
64763,6506
64789,6573
64856,6680
64888,6788
64939,6899
64944,6919
64956,6924
64974,6909
64967,6912
64984,6983
65014,7020
65044,7119
65126,7274
65193,7418
65279,7590
65337,7721
65407,7885
65450,8026
65507,8150
32,8279
94,8412
140,8537
196,8678
241,8798
281,8858
193,8706
65506,8191
65271,7673
65113,7266
65000,7015
64966,6910
64948,6880
64965,6914
64993,6969
65013,7030
65069,7141
65130,7281
65176,7365
65196,7439
65204,7442
65196,7426
65184,7416
65184,7416
65216,7423
65224,7477
65267,7577
65295,7671
65362,7802
65411,7923
65496,8081
29,8254
81,8395
159,8554
219,8688
294,8851
347,8986
393,9099
433,9195
450,9229
312,8956
74,8371
65378,7822
65198,7388
65068,7110
64967,6899
64916,6805
64887,6731
64866,6695
64858,6681
64872,6717
64873,6739
64869,6729
64870,6682
64905,6719
64986,6892
64814,6859
62582,4496
60624,2619
59747,2093
59178,1828
59007,1910
59502,2555
60470,3677
61284,4677
61581,5182
61761,5567
61521,5535
61460,5705
61460,5705
61688,6147
62274,6956
62749,7666
63131,8211
63436,8594
63648,8931
63817,9146
64141,9659
64355,9974
64608,10323
64771,10560
64888,10813
64994,10960
64994,10960
65068,11139
65163,11263
65214,11385
65279,11478
65325,11553
65361,11621
65439,11725
65504,11842
65527,11960
77,12095
189,12263
317,12332
432,12526
566,12688
675,12844
769,12948
837,13039
906,13148
952,13190
985,13265
983,13237
865,12983
535,12153
219,11312
2,10747
65425,10427
65368,10278
65359,10228
65349,10205
65370,10262
65388,10329
65414,10433
65403,10473
65362,10441
65293,10347
65161,10163
65031,9945
64857,9709
64707,9506
64610,9421
64569,9390
64594,9396
64590,9375
64574,9280
64536,9149
64496,9027
64496,9027
64466,8957
64449,8877
64427,8828
64410,8744
64383,8720
64363,8622
64266,8408
64085,8011
63819,7379
63580,6736
63392,6253
63257,5962
63177,5756
63131,5641
63116,5590
63098,5553
63113,5558
63122,5597
63137,5631
63113,5610
63097,5534
63060,5473
63025,5385
63043,5375
63032,5383
63054,5464
63089,5537
63161,5685
63228,5818
63290,5997
63345,6132
63401,6318
63455,6446
63501,6580
63547,6717
63596,6846
63629,6942
63651,7007
63611,6923
63386,6454
63140,5842
62925,5345
62766,4988
62688,4780
62639,4698
62627,4666
62626,4655
62612,4675
62632,4749
62670,4804
62695,4860
62698,4882
62687,4858
62669,4784
62636,4758
62631,4731
62633,4752
62647,4799
62683,4841
62683,4841
62710,4907
62734,4961
62761,5048
62787,5089
62815,5173
62825,5209
62859,5288
62892,5362
62926,5436
62959,5538
62991,5595
63028,5652
62969,5576
62826,5263
62628,4776
62420,4283
62263,4017
62188,3867
62173,3807
62172,3810
62180,3825
62215,3878
62256,3960
62293,4043
62338,4134
62339,4171
62340,4129
62320,4078
62305,4037
62305,4038
62318,4033
62342,4094
62369,4166
62401,4229
62436,4297
62464,4373
62492,4415
62523,4499
62535,4536
62575,4608
62590,4676
62610,4724
62641,4791
62665,4839
62691,4885
62678,4889
62588,4703
62436,4346
62436,4346
62267,3918
62115,3584
62058,3432
62052,3416
62090,3445
62130,3535
62170,3615
62221,3729
62268,3813
62305,3901
62326,3953
62341,3958
62336,3935
62325,3912
62346,3919
62334,3925
62381,3977
62413,4047
62437,4102
62488,4186
62507,4261
62563,4305
62585,4372
62606,4434
62617,4482
62666,4537
62699,4621
62739,4698
62773,4768
62783,4800
62788,4806
62696,4611
62556,4266
62389,3890
62282,3596
62230,3506
62243,3500
62283,3587
62316,3660
62368,3762
62415,3851
62471,3966
62500,4052
62537,4103
62548,4101
62529,4083
62509,4034
62514,4033
62523,4034
62556,4091
62586,4152
62604,4215
62641,4310
62702,4379
62723,4463
62756,4526
62761,4580
62787,4620
62787,4620
62832,4690
62855,4770
62899,4855
62936,4922
62978,5015
62983,5023
62947,4922
62793,4614
62612,4171
62451,3825
62375,3658
62391,3623
62401,3660
62441,3747
62485,3820
62555,3923
62598,4038
62637,4128
62661,4185
62677,4224
62664,4215
62658,4174
62652,4163
62658,4172
62686,4222
62700,4255
62743,4350
62767,4427
62819,4503
62846,4590
62873,4629
62918,4702
62930,4764
62964,4837
63000,4881
63036,4977
63043,5050
63084,5091
63105,5160
63128,5195
63058,5084
62930,4758
62762,4343
62615,4001
62541,3839
62510,3788
62543,3828
62543,3828
62570,3886
62611,3949
62646,4029
62677,4095
62740,4196
62740,4268
62772,4304
62765,4272
62749,4247
62725,4217
62726,4206
62742,4230
62755,4272
62776,4328
62818,4402
62862,4482
62881,4565
62916,4633
62933,4672
62973,4767
62990,4813
63027,4868
63062,4960
63086,5020
63125,5092
63145,5149
63160,5180
63150,5185
63074,5020
62914,4625
62723,4210
62567,3878
62533,3765
62532,3743
62554,3790
62597,3878
62640,3982
62696,4091
62762,4223
62790,4333
62833,4390
62838,4399
62830,4379
62801,4337
62818,4317
62822,4356
62847,4366
62855,4414
62876,4450
62893,4480
62918,4532
62928,4562
62952,4606
62961,4632
62976,4660
62988,4688
63003,4729
63030,4777
63048,4800
63048,4800
63076,4843
63070,4869
63060,4843
62973,4626
62817,4312
62677,3952
62604,3770
62565,3731
62604,3772
62653,3877
62707,4000
62778,4115
62822,4235
62895,4368
62947,4512
62981,4559
62978,4584
62986,4591
62984,4575
63000,4600
63012,4619
63061,4728
63085,4788
63127,4866
63150,4934
63195,5006
63215,5066
63227,5113
63259,5160
63276,5212
63317,5282
63334,5329
63350,5371
63384,5429
63395,5468
63404,5450
63288,5220
63115,4726
63136,4778
63158,4818
63199,4887
63226,4959
63269,5040
63303,5113
63349,5227
63382,5294
63409,5389
63457,5482
63483,5533
63457,5459
63318,5167
63117,4710
62922,4314
62922,4314
62850,4093
62838,4047
62858,4099
62919,4209
62975,4331
63050,4470
63114,4609
63185,4765
63221,4862
63242,4918
63224,4894
63221,4852
63210,4827
63200,4823
63218,4851
63242,4921
63279,4982
63316,5086
63365,5184
63408,5267
63441,5354
63474,5447
63524,5545
63597,5687
63639,5808
63701,5968
63775,6103
63830,6263
63881,6378
63801,6283
63581,5892
63306,5321
63109,4903
63004,4723
63010,4753
63109,4987
63262,5348
63451,5742
63669,6185
63835,6593
64037,6982
64224,7386
64437,7808
64624,8210
64844,8502
65032,8873
65193,9206
65337,9520
65462,9837
118,10190
118,10190
309,10559
466,10891
567,11145
714,11409
923,11781
1236,12316
1618,12791
1846,13219
2047,13577
2143,13771
2186,13875
2277,14012
2346,14162
2384,14219
2424,14256
2480,14358
2519,14427
2553,14496
2566,14554
2576,14566
2570,14567
2571,14578
2579,14610
2571,14639
2591,14648
2587,14675
2561,14645
2548,14669
2541,14659
2578,14734
2586,14733
2611,14807
2624,14831
2653,14905
2669,14956
2718,15037
2749,15105
2745,15131
2766,15183
2750,15214
2730,15187
2696,15155
2627,15093
2571,15015
2472,14898
2389,14750
2256,14465
1938,13756
1616,12951
1365,12371
1237,12092
1182,11935
1127,11873
1109,11803
1089,11777
1082,11792
1094,11855
1105,11909
1139,11942
1125,11875
1116,11744
1153,11642
1206,11569
1214,11572
1214,11572
1217,11544
1236,11549
1239,11558
1244,11541
1231,11527
1228,11499
1216,11460
1194,11435
1150,11359
1141,11299
1156,11294
1126,11223
1075,11094
901,10725
663,10140
376,9473
150,8872
65498,8448
65352,8228
65234,8001
65193,7878
65143,7806
65119,7781
65124,7836
65151,7873
65167,7927
65123,7918
65110,7858
65063,7785
65033,7709
64999,7647
64964,7599
64962,7569
64939,7558
64924,7545
64943,7589
64926,7602
64956,7641
64966,7711
65018,7795
65084,7936
65103,8033
65142,8158
65158,8237
65171,8325
65075,8122
64852,7649
64640,7165
64442,6776
64353,6567
64296,6480
64290,6496
64290,6496
64302,6554
64341,6675
64398,6833
64504,7060
64592,7298
64667,7493
64736,7639
64768,7731
64808,7810
64827,7899
64876,8022
64912,8164
64985,8330
65070,8557
65159,8739
65256,8965
65331,9181
65391,9332
65440,9479
65477,9552
65504,9683
2,9803
41,9925
58,10032
72,10073
85,10113
65528,10020
65262,9592
64792,8797
64202,7750
63802,7061
63651,6799
63588,6666
63516,6587
63331,6392
63025,6083
62630,5747
62171,5353
61446,4703
60798,4027
60075,3479
59413,2816
58877,2383
58858,2390
59185,2746
59628,3234
60053,3714
60286,3997
60366,4107
60284,4066
60036,3840
59503,3317
58057,1898
56139,65483
54277,63704
53033,62427
51209,60434
49565,58469
48515,57036
47536,55568
46697,54207
46017,53038
46017,53038
45583,52085
45600,51795
46172,52277
47490,53593
49784,55973
53181,59269
57203,63288
60332,1049
62499,3648
63525,4809
64189,5728
64782,6589
65338,7433
288,8292
772,8979
1166,9663
1457,10259
1752,10874
2160,11579
2515,12132
2784,12458
3019,12813
3038,12857
2898,12818
2786,12767
2779,12722
2573,12450
2286,12059
2091,11667
1885,11243
1785,10890
1874,10653
2221,10823
2790,11355
3491,12112
4125,12827
4458,13311
4666,13529
4832,13704
4969,13880
5039,14007
5110,14105
5069,14073
4954,13972
4647,13642
4311,13265
4031,13044
3814,12848
3661,12730
3551,12639
3433,12495
3310,12264
3136,12008
3003,11780
2917,11613
2917,11613
2759,11281
2671,11105
2600,10967
2539,10807
2431,10611
2277,10257
1982,9634
1659,8893
1337,8185
1337,8185
915,7403
915,7403
807,7186
698,6991
635,6865
579,6756
540,6719
527,6709
493,6662
448,6602
381,6498
327,6355
264,6257
216,6179
219,6166
201,6165
210,6199
234,6231
245,6286
263,6343
258,6360
285,6414
282,6451
315,6510
337,6574
342,6599
353,6656
380,6705
368,6692
277,6500
90,6116
65521,5672
65382,5350
65317,5216
65295,5201
65319,5238
65337,5305
65375,5370
65420,5467
65457,5570
65478,5652
65499,5689
65482,5673
65470,5645
65462,5629
65466,5630
65472,5655
2,5747
53,5897
119,6037
192,6216
247,6319
290,6432
290,6432
327,6512
392,6667
453,6791
491,6927
545,7074
591,7202
665,7364
662,7451
603,7303
393,6863
177,6373
30,5998
65484,5809
65470,5743
65484,5766
65499,5804
1,5867
55,5963
128,6082
168,6207
184,6235
182,6218
139,6154
73,6014
16,5916
65509,5823
65517,5845
27,5911
62,6006
144,6136
208,6281
313,6454
382,6608
483,6791
599,7002
718,7212
831,7450
931,7655
1037,7866
1125,8021
1119,8047
1028,7779
859,7422
717,7061
670,6878
686,6874
778,7014
872,7188
990,7422
1087,7618
1205,7810
1291,8008
1385,8161
1474,8294
1484,8365
1520,8380
1552,8419
1577,8457
1619,8542
1654,8643
1710,8721
1756,8837
1812,8937
1871,9051
1931,9162
1931,9162
1983,9275
2014,9342
2069,9451
2081,9507
2143,9605
2153,9677
2195,9724
2206,9761
2132,9644
2006,9292
1793,8802
1629,8402
1561,8207
1532,8165
1584,8220
1631,8319
1672,8387
1714,8482
1741,8553
1799,8658
1817,8709
1823,8711
1802,8658
1780,8606
1749,8527
1728,8488
1736,8473
1727,8490
1753,8551
1790,8578
1796,8629
1796,8645
1815,8678
1806,8680
1805,8677
1809,8670
1793,8682
1804,8688
1786,8679
1791,8674
1792,8666
1709,8484
1576,8172
1416,7793
1318,7567
1281,7496
1335,7564
1382,7662
1438,7769
1488,7882
1549,8010
1549,8010
1646,8222
1697,8278
1697,8278
1711,8303
1682,8258
1683,8228
1680,8222
1706,8248
1714,8267
1761,8336
1794,8424
1827,8501
1870,8582
1910,8659
1953,8726
1991,8803
2010,8862
2027,8899
2071,8966
2095,9012
2096,9033
2115,9058
2045,8932
1916,8638
1757,8242
1619,7898
1573,7771
1558,7750
1603,7828
1665,7938
1698,8019
1750,8120
1788,8219
1819,8289
1844,8352
1862,8366
1842,8320
1829,8288
1830,8268
1828,8244
1849,8287
1870,8334
1908,8408
1938,8476
1971,8554
1991,8610
2026,8678
2048,8725
2070,8748
2085,8798
2089,8835
2120,8890
2132,8921
2143,8924
2105,8858
1981,8551
1805,8142
1650,7779
1586,7604
1574,7558
1595,7633
1642,7706
1683,7800
1726,7875
1785,8009
1814,8091
1864,8175
1864,8175
1865,8206
1867,8162
1855,8111
1834,8071
1836,8064
1848,8111
1874,8150
1903,8206
1942,8282
1969,8349
2004,8398
2019,8434
2042,8503
2055,8546
2090,8602
2119,8664
2128,8710
2164,8755
2165,8753
2178,8779
2090,8620
1938,8249
1772,7833
1617,7525
1598,7414
1603,7430
1636,7518
1693,7609
1749,7705
1795,7810
1843,7923
1873,7991
1905,8043
1905,8062
1914,8042
1894,8026
1893,8011
1920,8027
1922,8063
1961,8115
1982,8183
2034,8269
2049,8334
2077,8397
2086,8429
2116,8458
2140,8533
2149,8584
2181,8618
2197,8675
2225,8720
2225,8720
2251,8786
2264,8791
2247,8769
1995,8179
1825,7781
1742,7561
1710,7493
1741,7541
1791,7649
1836,7733
1887,7846
1930,7950
1930,7950
1980,8060
2008,8124
2032,8139
2009,8101
1974,8042
1970,8002
1955,7975
1951,7968
1967,8005
1973,8054
2001,8094
2042,8169
2053,8208
2088,8258
2102,8315
2131,8360
2144,8397
2177,8442
2188,8489
2219,8569
2238,8610
2265,8643
2228,8630
2160,8422
2028,8054
1864,7720
1783,7509
1760,7452
1783,7520
1828,7592
1872,7690
1923,7783
1966,7892
2012,7977
1993,7975
1990,7954
1982,7940
2099,8184
1969,8103
1271,7221
64825,5112
62549,3206
60522,1260
58868,65196
57976,64163
58062,64115
58323,64265
58164,64010
57414,63202
56397,62048
54309,59976
52099,57619
52099,57619
49195,54659
45893,50808
41552,45608
38096,41335
35736,38371
33796,35970
32677,34461
32033,33463
31744,33077
32144,33500
33359,34870
35468,37281
38395,40714
40935,43546
42220,45166
43169,46192
44009,47134
44975,48160
46456,49728
48198,51614
50070,53676
51828,55482
53353,57099
54515,58321
55414,59323
55830,59842
55933,60074
56043,60357
55556,59994
53953,58340
51881,56139
48323,52281
46091,49395
45416,47897
41316,42836
35077,36192
29701,30687
27986,28691
27127,27746
26085,26449
25204,25385
24774,24849
24740,24780
24728,24734
22704,22626
15333,15029
9809,9556
6001,5880
3812,3815
2694,2801
2035,2217
1600,1844
1377,1682
1243,1617
1210,1624
1192,1608
1173,1594
1180,1607
1147,1602
1165,1640
1174,1661
1174,1688
1174,1688
1200,1744
1268,1879
1268,1879
1288,1916
1297,1937
1329,1982
1359,2032
1465,2187
1631,2444
1946,2892
2571,3715
3626,5079
5533,7555
8290,11258
10548,14065
12474,16517
14373,19065
17088,22529
20590,27087
24641,32159
27972,36717
32248,42161
25587,33891
25817,34851
26144,35895
29727,39253
29503,38276
30575,39979
31391,40623
32116,41440
32010,41863
29844,39206
30811,40977
29465,38725
26816,36409
19754,27337
15330,20858
11099,15186
8360,11582
6525,8961
4655,6486
3197,4587
2115,3134
1483,2184
1280,1892
1199,1781
1124,1660
1113,1624
1075,1559
1052,1527
1068,1546
1050,1523
1061,1524
1055,1525
1047,1518
1047,1518
1060,1534
1048,1522
1061,1518
1055,1523
1048,1520
1062,1532
1049,1521
1062,1518
1055,1527
1046,1520
1069,1535
1047,1523
1061,1520
1056,1529
1046,1520
1071,1534
1049,1523
1051,1518
1053,1538
1047,1518
1069,1534
1047,1522
1046,1518
1051,1542
1046,1518
1067,1532
1048,1527
1046,1518
1051,1544
1046,1517
1063,1538
1047,1529
1046,1518
1055,1537
1048,1520
1063,1541
1049,1529
1047,1520
1062,1535
1046,1519
1060,1543
1050,1528
1047,1520
1066,1531
1046,1520
1059,1545
1052,1528
1048,1520
1064,1530
1046,1521
1060,1543
1055,1526
1044,1519
1061,1534
1046,1520
1067,1544
1052,1523
1046,1517
1059,1538
1046,1521
1068,1542
1054,1523
1047,1518
1056,1538
1056,1538
1047,1519
1070,1542
1053,1529
1046,1519
1055,1536
1047,1521
1070,1542
1049,1532
1046,1518
1060,1538
1046,1520
1069,1539
1047,1532
1046,1519
1064,1539
1047,1518
1069,1540
1051,1529
1046,1518
1063,1540
1047,1521
1068,1544
1052,1531
1045,1517
1063,1544
1045,1521
1067,1545
1056,1529
1046,1519
1061,1547
1045,1520
1066,1543
1056,1529
1046,1521
1064,1548
1046,1520
1065,1530
1054,1525
1046,1520
1065,1546
1047,1521
1068,1519
1055,1525
1044,1517
1071,1542
1045,1519
1073,1518
1055,1523
1044,1518
1075,1540
1044,1520
1071,1517
1055,1526
1045,1516
1045,1516
1074,1536
1046,1519
1060,1516
1045,1518
1072,1534
1047,1522
1047,1518
1047,1539
1046,1518
1069,1531
1069,1531
1045,1527
1044,1516
1047,1540
1045,1517
1065,1534
1045,1526
1044,1516
1048,1537
1045,1519
1060,1537
1046,1527
1043,1517
1056,1535
1045,1517
1058,1539
1047,1526
1043,1517
1065,1534
1044,1517
1057,1543
1048,1525
1044,1518
1064,1528
1044,1517
1057,1542
1050,1525
1045,1518
1062,1530
1044,1519
1061,1542
1053,1523
1043,1516
1058,1534
1043,1517
1065,1542
1053,1523
1044,1517
1058,1534
1043,1519
1066,1539
1052,1525
1044,1516
1055,1535
1045,1517
1069,1539
1050,1527
1050,1527
1043,1517
1054,1534
1045,1518
1068,1538
1048,1528
1043,1516
1060,1535
1044,1516
1067,1539
1044,1526
1043,1516
1060,1536
1043,1518
1067,1539
1046,1528
1045,1516
1059,1537
1045,1515
1066,1542
1052,1529
1045,1516
1060,1540
1045,1517
1063,1543
1051,1528
1045,1516
1062,1545
1045,1519
1064,1541
1054,1526
1044,1515
1062,1544
1045,1517
1067,1525
1052,1523
1044,1516
1066,1542
1043,1517
1069,1515
1052,1521
1044,1516
1068,1538
1045,1516
1072,1516
1053,1518
1044,1516
1073,1537
1044,1516
1070,1515
1050,1523
1044,1514
1071,1532
1045,1517
1053,1515
1048,1533
1045,1515
1070,1529
1044,1521
1042,1515
1045,1540
1045,1540
1042,1515
1065,1529
1046,1521
1044,1514
1045,1538
1044,1514
1062,1533
1044,1523
1044,1515
1048,1534
1044,1516
1056,1535
1045,1526
1044,1516
1058,1531
1044,1517
1056,1538
1047,1524
1043,1515
1064,1530
1043,1516
1055,1540
1048,1524
1044,1515
1065,1527
1043,1517
1059,1541
1050,1521
1043,1514
1062,1531
1043,1515
1064,1540
1050,1520
1043,1515
1059,1533
1043,1516
1066,1538
1051,1522
1042,1514
1055,1535
1042,1515
1068,1539
1049,1525
1044,1515
1052,1534
1044,1516
1069,1537
1048,1530
1048,1530
1044,1515
1056,1533
1043,1516
1066,1535
1049,1528
1042,1514
1060,1533
1045,1515
1066,1535
1050,1526
1044,1515
1060,1536
1042,1514
1066,1538
1053,1526
1043,1514
1061,1542
1043,1515
1064,1542
1055,1526
1043,1515
1059,1545
1045,1518
1062,1541
1056,1527
1043,1514
1061,1546
1043,1516
1067,1526
1052,1523
1043,1515
1063,1541
1042,1516
1069,1514
1054,1521
1044,1515
1067,1538
1045,1518
1070,1515
1053,1519
1043,1515
1070,1536
1045,1516
1069,1516
1052,1521
1044,1515
1069,1532
1044,1516
1057,1513
1049,1530
1043,1513
1069,1531
1044,1517
1044,1515
1048,1537
1042,1514
1067,1531
1044,1520
1044,1520
1044,1515
1045,1540
1043,1513
1063,1532
1046,1522
1045,1515
1051,1536
1043,1514
1060,1535
1045,1525
1043,1513
1054,1532
1042,1515
1056,1539
1047,1525
1043,1514
1063,1531
1042,1514
1055,1542
1047,1523
1042,1515
1065,1529
1042,1514
1059,1542
1049,1521
1042,1515
1061,1528
1043,1516
1063,1542
1051,1521
1043,1514
1058,1533
1042,1517
1066,1539
1052,1524
1044,1514
1059,1533
1043,1517
1068,1539
1049,1523
1044,1516
1054,1531
1043,1515
1068,1538
1050,1525
1044,1516
1054,1534
1045,1518
1069,1538
1069,1538
1048,1528
1043,1516
1056,1534
1043,1516
1066,1537
1048,1526
1044,1514
1060,1535
1044,1516
1067,1538
1050,1525
1044,1516
1059,1536
1044,1516
1067,1539
1051,1527
1043,1516
1063,1538
1045,1516
1065,1542
1055,1527
1043,1515
1060,1543
1044,1517
1065,1542
1054,1527
1045,1515
1061,1545
1044,1517
1065,1537
1054,1527
1043,1515
1063,1545
1045,1518
1066,1521
1053,1523
1044,1516
1065,1540
1045,1518
1068,1515
1054,1519
1042,1514
1067,1539
1044,1517
1071,1515
1056,1520
1045,1514
1073,1537
1045,1517
1069,1514
1053,1524
1043,1514
1072,1532
1044,1517
1059,1515
1050,1529
1043,1515
1069,1531
1044,1520
1046,1516
1046,1516
1045,1536
1043,1515
1065,1529
1046,1521
1044,1515
1047,1539
1044,1514
1066,1530
1044,1522
1043,1517
1046,1538
1043,1516
1063,1535
1044,1525
1044,1516
1049,1536
1045,1517
1059,1536
1046,1526
1043,1514
1054,1531
1043,1513
1058,1540
1046,1524
1044,1514
1061,1532
1045,1515
1057,1541
1049,1523
1043,1516
1063,1529
1044,1516
1056,1542
1049,1523
1044,1515
1063,1525
1042,1516
1059,1542
1050,1521
1043,1514
1059,1532
1044,1516
1065,1539
1051,1521
1044,1515
1058,1532
1058,1532
1043,1515
1066,1537
1051,1522
1044,1515
1053,1533
1043,1517
1065,1537
1050,1525
1042,1515
1054,1532
1043,1516
1066,1534
1049,1527
1042,1514
1053,1533
1042,1514
1067,1534
1048,1527
1044,1513
1057,1532
1043,1515
1065,1532
1047,1524
1043,1514
1057,1531
1043,1514
1062,1535
1050,1523
1042,1512
1058,1534
1043,1515
1061,1534
1051,1524
1041,1511
1057,1534
1042,1513
1061,1535
1052,1523
1040,1510
1056,1538
1039,1513
1058,1533
1052,1523
1040,1510
1055,1537
1041,1512
1057,1530
1050,1519
1038,1508
1056,1538
1041,1512
1059,1521
1051,1518
1037,1508
1059,1536
1038,1511
1058,1511
1048,1515
1038,1507
1038,1507
1061,1532
1040,1511
1062,1507
1051,1512
1038,1508
1062,1529
1040,1512
1062,1506
1051,1516
1037,1507
1068,1529
1040,1512
1061,1506
1050,1520
1040,1508
1068,1529
1041,1514
1054,1509
1049,1526
1041,1512
1069,1529
1047,1520
1048,1516
1052,1535
1048,1517
1070,1533
1055,1525
1052,1517
1059,1537
1057,1524
1088,1549
1115,1589
1242,1716
1571,2030
1677,2103
1325,1738
1189,1613
1146,1574
1154,1597
1150,1583
1207,1646
1367,1816
1992,2434
3032,3484
4081,4553
4228,4768
3233,3847
2605,3242
2605,3242
1670,2138
1433,1842
1429,1834
1695,2098
2105,2558
2517,3023
3122,3754
3278,3942
3356,4026
3317,3955
3243,3859
2921,3505
2812,3368
2733,3264
2611,3128
2503,3006
2479,2992
2573,3109
2550,3084
2448,2954
2344,2832
2143,2609
1640,2072
1371,1840
1373,1837
1389,1854
1377,1841
1395,1857
1408,1871
1436,1888
1480,1927
1510,1951
1569,1999
1601,2025
1629,2041
1708,2109
1776,2160
1851,2216
1901,2269
1939,2296
1908,2266
1874,2224
1861,2203
1837,2182
1803,2141
1740,2083
1615,1973
1524,1900
1426,1832
1349,1771
1322,1754
1285,1720
1271,1717
1252,1704
1245,1690
1249,1701
1232,1683
1237,1690
1237,1690
1228,1681
1216,1667
1223,1678
1206,1657
1213,1664
1209,1657
1198,1646
1212,1664
1196,1642
1201,1648
1186,1631
1164,1609
1166,1619
1147,1588
1152,1594
1141,1580
1124,1563
1130,1576
1108,1546
1115,1547
1104,1537
1085,1520
1096,1538
1072,1506
1091,1503
1072,1502
1056,1488
1082,1521
1053,1490
1092,1489
1064,1492
1049,1483
1088,1521
1048,1484
1093,1480
1063,1487
1044,1482
1093,1516
1049,1483
1092,1480
1063,1492
1046,1482
1137,1553
1098,1535
1133,1529
1110,1549
1095,1529
1095,1529
1143,1558
1098,1538
1113,1535
1115,1573
1110,1549
1156,1575
1112,1553
1127,1557
1135,1597
1127,1555
1161,1573
1118,1552
1109,1535
1110,1571
1105,1530
1132,1552
1104,1537
1101,1527
1106,1555
1103,1526
1138,1553
1136,1545
1133,1533
1130,1547
1124,1529
1145,1556
1135,1546
1138,1541
1160,1564
1151,1551
1177,1581
1170,1570
1161,1555
1174,1568
1150,1550
1156,1570
1140,1551
1132,1537
1143,1544
1118,1524
1121,1536
1124,1532
1136,1539
1164,1559
1165,1564
1218,1611
1230,1614
1259,1635
1337,1690
1377,1723
1450,1784
1483,1809
1515,1832
1563,1873
1575,1881
1558,1873
1569,1877
1600,1898
1647,1943
1660,1950
1660,1950
1695,1982
1725,2013
1735,2018
1747,2023
1729,2002
1744,2012
1726,1999
1693,1962
1654,1929
1536,1825
1410,1736
1271,1654
1188,1604
1149,1592
1114,1557
1113,1552
1116,1564
1098,1538
1107,1547
1090,1529
1109,1544
1095,1540
1089,1526
1112,1548
1099,1536
1128,1564
1125,1567
1135,1571
1174,1606
1175,1606
1218,1636
1210,1619
1176,1591
1186,1612
1161,1593
1175,1614
1154,1597
1126,1570
1125,1581
1087,1538
1101,1559
1085,1539
1062,1515
1086,1557
1066,1525
1094,1557
1081,1541
1065,1523
1065,1523
1088,1566
1066,1529
1094,1547
1081,1543
1071,1533
1097,1573
1111,1550
1102,1570
1092,1570
1132,1619
1132,1619
1119,1613
1168,1632
1171,1671
1182,1701
1246,1774
1253,1800
1313,1840
1338,1907
1363,1953
1449,2050
1455,2079
1485,2083
1471,2097
1466,2090
1500,2114
1476,2100
1524,2136
1610,2260
1674,2343
1775,2439
1848,2540
1930,2637
1988,2722
1989,2719
1996,2718
1957,2684
1918,2631
1891,2609
1842,2533
1806,2476
1741,2404
1701,2348
1696,2353
1692,2325
1764,2398
1813,2465
1871,2524
1971,2642
2044,2715
2150,2836
2222,2928
2283,2992
2347,3063
2352,3056
2360,3068
2309,3016
2262,2960
2262,2960
2267,2960
2245,2939
2239,2940
2193,2884
2150,2834
2151,2825
2124,2806
2150,2843
2154,2838
2136,2817
2146,2818
2120,2796
2140,2821
2138,2811
2150,2827
2213,2892
2236,2923
2294,2990
2364,3066
2474,3188
2639,3366
2823,3561
3085,3804
3294,3970
3441,4077
3666,4295
3732,4397
3349,4026
2820,3517
2458,3146
2296,2986
2202,2885
2201,2883
2227,2926
2299,3004
2366,3089
2388,3124
2455,3202
2484,3257
2496,3284
2526,3330
2475,3286
2424,3234
2395,3228
2329,3164
2263,3079
2110,2875
2007,2728
2007,2728
1970,2690
1989,2708
2004,2728
2068,2795
2098,2832
2113,2846
2138,2868
2132,2852
2161,2877
2174,2884
2199,2907
2199,2907
2269,2976
2289,2973
2299,2970
2264,2912
2218,2854
2223,2859
2186,2807
2127,2763
2081,2728
2045,2702
2010,2684
1965,2635
1950,2620
1927,2600
1907,2584
1931,2618
1925,2615
1957,2635
1964,2648
1963,2652
1993,2686
1982,2675
2008,2677
2025,2721
2029,2734
2065,2774
2041,2751
2053,2745
2052,2762
2038,2749
2059,2760
2032,2739
2033,2711
1995,2683
1962,2644
1969,2642
1925,2616
1933,2615
1925,2631
1924,2632
1942,2633
1908,2605
1898,2584
1907,2612
1902,2598
1938,2626
1926,2627
1926,2627
1920,2615
1937,2655
1937,2636
1972,2668
1960,2670
1956,2662
1964,2687
1953,2657
1973,2674
1955,2665
1947,2653
1956,2673
1938,2640
1952,2654
1938,2646
1931,2633
1946,2653
1935,2639
1947,2655
1914,2618
1886,2579
1885,2573
1836,2517
1825,2511
1799,2480
1770,2444
1770,2429
1721,2379
1726,2395
1715,2374
1707,2362
1745,2388
1715,2372
1730,2395
1723,2379
1714,2370
1740,2391
1711,2368
1732,2394
1724,2377
1708,2363
1738,2393
1714,2373
1741,2403
1714,2369
1697,2350
1723,2385
1701,2359
1724,2379
1708,2365
1691,2347
1716,2381
1699,2357
1727,2380
1707,2367
1699,2356
1699,2356
1717,2384
1738,2391
1738,2391
1721,2386
1710,2370
1731,2396
1728,2392
1780,2439
1843,2537
1853,2547
1865,2559
1842,2536
1865,2554
1849,2553
1835,2526
1860,2550
1846,2541
1868,2563
1857,2558
1845,2543
1869,2567
1850,2551
1867,2564
1861,2561
1852,2549
1879,2580
1870,2573
1917,2632
1920,2633
1914,2633
1930,2655
1922,2654
1939,2674
1935,2668
1912,2639
1928,2661
1904,2626
1924,2652
1931,2660
1912,2639
1929,2666
1905,2631
1922,2640
1915,2637
1902,2629
1917,2647
1897,2622
1906,2604
1910,2630
1883,2600
1883,2600
1925,2656
1881,2600
1892,2576
1891,2597
1885,2599
1910,2620
1887,2601
1913,2605
1910,2622
1900,2618
1928,2638
1900,2618
1915,2607
1905,2616
1893,2606
1921,2626
1896,2610
1907,2601
1899,2613
1884,2597
1906,2607
1881,2594
1884,2590
1891,2616
1879,2590
1905,2608
1887,2601
1878,2586
1886,2607
1882,2590
1904,2602
1884,2588
1872,2570
1875,2584
1864,2558
1885,2576
1868,2570
1863,2558
1871,2582
1857,2558
1870,2573
1856,2559
1856,2554
1873,2579
1865,2566
1874,2575
1862,2561
1855,2548
1873,2566
1851,2543
1863,2559
1856,2545
1845,2532
1869,2551
1850,2542
1865,2569
1860,2557
1860,2557
1847,2541
1873,2556
1846,2537
1863,2567
1855,2552
1833,2523
1844,2525
1820,2511
1847,2546
1829,2524
1782,2465
1788,2467
1751,2425
1714,2367
1630,2260
1547,2155
1493,2087
1442,2025
1447,2023
1400,1963
1347,1898
1329,1878
1260,1784
1244,1738
1178,1662
1135,1607
1137,1620
1109,1577
1146,1608
1108,1579
1090,1550
1107,1582
1090,1551
1135,1590
1098,1570
1082,1541
1101,1571
1079,1540
1117,1574
1084,1560
1070,1529
1098,1559
1073,1533
1112,1570
1091,1570
1091,1570
1086,1555
1115,1588
1088,1559
1120,1589
1101,1578
1089,1558
1116,1588
1085,1556
1112,1582
1093,1564
1071,1535
1091,1559
1059,1514
1087,1540
1070,1522
1052,1499
1082,1543
1053,1505
1089,1548
1070,1519
1049,1492
1079,1541
1050,1497
1085,1540
1071,1512
1049,1491
1078,1542
1049,1497
1080,1530
1067,1512
1055,1497
1081,1539
1054,1500
1084,1510
1069,1512
1056,1498
1088,1540
1069,1516
1108,1522
1107,1549
1110,1560
1168,1616
1203,1622
1433,1733
2152,2300
5356,5143
14283,14283
28986,28497
35127,35028
34283,34304
32363,32367
31025,31031
29295,29174
32492,32421
38342,39031
40151,41671
42859,45860
47004,54975
49007,57752
45764,54016
45764,54016
39777,46329
37309,42672
53588,63438
56881,2659
58892,4898
61156,6167
62410,2055
53207,57262
46244,46493
14300,14574
4145,4444
2355,2746
1897,2369
1833,2305
1846,2324
1871,2317
1917,2337
1926,2323
1908,2288
1889,2274
1892,2266
1906,2277
1837,2224
1752,2145
1703,2106
1687,2086
1711,2105
1688,2084
1634,2034
1615,2015
1599,2003
1605,2020
1579,1998
1544,1969
1544,1965
1521,1951
1529,1962
1517,1947
1496,1926
1500,1926
1475,1906
1484,1920
1476,1907
1468,1898
1481,1909
1466,1895
1479,1908
1473,1900
1473,1900
1465,1894
1475,1904
1463,1894
1476,1907
1473,1903
1474,1904
1492,1927
1488,1921
1514,1942
1525,1950
1536,1959
1570,1992
1578,1996
1603,2014
1606,2019
1608,2014
1626,2032
1618,2021
1640,2038
1630,2033
1607,2012
1619,2027
1603,2009
1632,2037
1642,2058
1662,2070
1695,2104
1693,2104
1717,2125
1710,2127
1686,2104
1704,2117
1671,2090
1662,2082
1643,2072
1636,2060
1655,2079
1646,2068
1680,2100
1696,2111
1723,2126
1782,2177
1814,2197
1858,2235
1865,2238
1853,2222
1882,2251
1899,2258
1939,2295
1947,2299
1932,2282
1929,2287
1898,2257
1888,2252
1886,2248
1865,2229
1878,2248
1866,2232
1884,2246
1884,2246
1888,2253
1886,2250
1903,2271
1900,2264
1920,2271
1915,2278
1894,2262
1895,2267
1885,2255
1899,2247
1911,2268
1972,2316
2033,2369
2054,2387
2137,2436
2247,2537
2384,2655
2585,2820
2778,2993
3077,3235
3436,3568
3852,3958
4303,4381
5800,5758
10372,10318
14502,14896
13827,14540
9635,10048
6550,6846
6248,6472
6373,6674
6445,6757
6562,6870
6677,7000
6860,7179
7138,7462
7225,7543
7331,7624
7323,7599
6998,7245
6624,6850
6437,6640
6397,6579
6373,6548
6327,6487
6268,6409
6226,6341
6226,6341
6171,6247
6131,6192
6018,6074
5765,5824
4808,4837
4172,4166
3869,3871
3921,3927
3996,4014
4011,4043
4025,4073
3848,3942
3856,3996
4013,4191
4477,4709
5468,5722
7292,7522
9964,10215
13332,13684
16875,17453
16297,16938
13421,13709
9313,9474
6206,6344
4433,4665
3586,3891
3143,3483
2523,2951
2281,2752
2161,2640
2144,2612
2116,2564
2083,2515
2076,2499
2054,2453
2074,2450
2036,2400
2197,2452
2616,2827
3264,3492
3467,3693
3527,3737
3746,3920
3808,3954
3844,3946
3928,3998
4155,4206
4395,4438
4005,4157
3984,4166
4084,4271
4469,4668
6761,7284
12081,13324
23520,26374
32987,37408
39445,44652
45178,51406
47687,54663
50011,57724
51467,59593
51467,59593
50233,58450
45727,53261
38886,45022
32415,37039
27024,30218
23657,26043
23398,25566
23621,25706
22844,24749
22115,23925
21724,23422
20675,22265
19065,20484
16488,17941
13211,14528
10951,12056
11979,13513
17194,19512
27544,31927
23679,26908
12513,14256
5774,6916
3005,3842
1827,2461
1402,1909
1266,1749
1201,1676
1191,1666
1171,1653
1188,1667
1183,1682
1168,1662
1175,1663
1160,1649
1183,1658
1203,1688
1265,1738
1495,1927
1783,2222
2100,2563
2554,3080
3636,4234
3962,4845
1683,2363
1367,1929
1304,1852
1306,1836
1354,1883
1356,1907
1356,1907
1357,1906
1348,1917
1326,1866
1353,1884
1350,1903
1367,1916
1376,1953
1367,1923
1395,1953
1383,1955
1395,1963
1401,1983
1377,1940
1407,1978
1405,1986
1421,1997
1460,2044
1453,2041
1485,2091
1473,2074
1454,2042
1463,2035
1408,1981
1407,1991
1397,1971
1417,1999
1532,2134
1610,2256
1815,2516
2294,3125
3285,4337
5034,6330
5393,6632
6953,8212
10202,11423
10497,11594
4278,4826
2757,3254
2791,3298
3011,3522
3318,3843
3890,4539
4259,5105
4361,5230
4417,5294
4662,5582
4859,5799
4902,5824
4830,5709
4651,5488
4474,5273
4301,5060
3848,4508
3480,4047
3256,3773
3228,3729
3414,3960
3501,4090
3501,4090
3515,4117
3497,4091
3442,4028
3452,4055
3457,4082
3502,4136
3465,4101
3298,3906
3144,3735
3052,3651
2927,3519
2766,3344
2575,3125
2395,2910
2240,2717
2150,2611
2038,2477
1954,2382
1951,2373
1920,2333
1920,2327
1955,2371
1996,2415
2057,2450
2144,2500
2212,2540
2232,2564
2217,2550
2209,2540
2184,2515
2190,2509
2186,2519
2159,2502
2156,2494
2128,2470
2121,2452
2107,2453
2092,2439
2110,2454
2097,2450
2102,2452
2102,2465
2096,2454
2111,2467
2099,2461
2096,2456
2101,2474
2099,2467
2099,2467
2117,2485
2119,2497
2119,2499
2133,2521
2135,2519
2161,2556
2165,2557
2172,2564
2159,2546
2160,2546
2149,2534
2149,2534
2140,2521
2151,2531
2138,2520
2148,2532
2141,2521
2126,2503
2133,2507
2116,2496
2127,2512
2124,2508
2114,2498
2129,2505
2110,2492
2122,2504
2119,2501
2111,2492
2124,2505
2112,2493
2126,2508
2118,2500
2111,2494
2123,2510
2117,2501
2129,2510
2127,2511
2120,2506
2133,2519
2125,2507
2137,2510
2129,2510
2120,2496
2136,2516
2130,2509
2141,2516
2131,2510
2113,2489
2117,2486
2099,2465
2104,2466
2099,2465
2089,2453
2100,2463
2088,2448
2096,2454
2091,2449
2082,2437
2093,2450
2084,2440
2095,2451
2095,2451
2100,2453
2092,2440
2102,2447
2088,2422
2088,2411
2075,2389
2057,2366
2062,2375
2045,2349
2045,2347
2036,2337
2021,2319
2026,2327
2006,2304
2013,2297
2002,2298
1991,2290
2001,2300
1982,2281
1989,2272
1983,2276
1969,2266
1984,2275
1969,2266
1976,2258
1970,2271
1962,2259
1980,2271
1965,2267
1964,2262
1967,2276
1960,2257
1973,2268
1959,2264
1957,2258
1961,2273
1955,2257
1964,2266
1957,2263
1950,2255
1959,2274
1951,2263
1962,2276
1956,2273
1949,2263
1961,2273
1946,2261
1954,2275
1947,2266
1945,2258
1961,2270
1945,2259
1954,2273
1946,2261
1938,2253
1950,2262
1936,2251
1947,2264
1936,2251
1929,2245
1929,2245
1940,2257
1929,2248
1943,2259
1931,2250
1921,2237
1928,2247
1919,2236
1930,2245
1919,2241
1912,2232
1921,2243
1914,2234
1928,2244
1923,2246
1918,2238
1932,2254
1926,2249
1939,2259
1937,2261
1931,2253
1947,2266
1933,2253
1942,2258
1937,2253
1926,2243
1937,2256
1928,2243
1937,2250
1935,2247
1925,2238
1939,2256
1925,2239
1930,2241
1928,2240
1915,2229
1928,2245
1915,2232
1926,2226
1921,2232
1909,2221
1921,2231
1903,2213
1911,2207
1906,2212
1894,2202
1906,2208
1884,2191
1884,2191
1887,2180
1879,2185
1870,2171
1881,2177
1863,2167
1856,2155
1856,2166
1848,2149
1857,2150
1842,2141
1837,2134
1841,2147
1835,2132
1845,2146
1836,2139
1833,2133
1843,2146
1836,2138
1847,2156
1849,2158
1855,2164
1876,2183
1863,2178
1872,2191
1869,2179
1858,2169
1870,2177
1857,2167
1865,2176
1862,2169
1853,2161
1867,2176
1857,2166
1876,2182
1875,2188
1875,2190
1896,2215
1890,2208
1905,2219
1902,2219
1898,2213
1916,2230
1913,2226
1932,2238
1927,2240
1922,2226
1937,2244
1927,2232
1944,2244
1944,2248
1947,2246
1973,2267
1972,2269
2001,2295
2014,2310
2025,2319
2065,2362
2084,2380
2129,2419
2184,2467
2184,2467
2233,2511
2305,2579
2374,2628
2513,2744
2665,2840
4217,4166
8927,8586
8627,8377
8547,8439
5313,5766
1787,2349
1436,2060
1393,2037
1420,2062
1437,2102
1440,2116
1473,2147
1471,2158
1495,2173
1497,2194
1500,2197
1538,2236
1532,2243
1527,2232
1540,2262
1549,2266
1578,2292
1562,2284
1556,2273
1558,2292
1554,2273
1569,2286
1560,2284
1551,2269
1556,2279
1550,2268
1566,2289
1559,2285
1558,2280
1577,2299
1566,2291
1577,2311
1577,2306
1570,2296
1588,2307
1568,2294
1580,2309
1572,2298
1572,2298
1566,2291
1583,2305
1567,2293
1584,2308
1577,2300
1567,2291
1581,2307
1571,2299
1590,2316
1580,2308
1569,2295
1575,2308
1564,2290
1570,2288
1548,2269
1534,2250
1539,2258
1530,2244
1542,2253
1533,2253
1528,2241
1541,2255
1529,2243
1539,2253
1535,2250
1522,2234
1536,2247
1521,2232
1527,2237
1518,2224
1504,2206
1514,2221
1500,2202
1519,2224
1532,2242
1543,2258
1571,2297
1571,2290
1585,2293
1593,2296
1622,2317
1671,2365
1650,2325
1619,2255
1594,2228
1566,2192
1607,2230
1643,2281
1686,2309
1702,2335
1712,2342
1752,2370
1748,2369
1744,2354
1738,2350
1728,2332
1739,2332
1729,2320
1773,2359
1773,2359
1835,2426
1858,2436
1886,2456
1888,2464
1893,2467
1925,2509
1948,2518
1975,2544
1988,2553
2003,2567
2049,2609
2085,2653
2156,2732
2195,2765
2203,2769
2222,2781
2195,2757
2180,2742
2166,2720
2182,2729
2254,2799
2310,2859
2390,2951
2456,3029
2561,3157
2732,3365
2915,3589
3226,3963
3596,4416
3976,4859
4296,5214
4854,5829
5585,6630
6285,7408
6773,7943
7457,8715
8166,9539
8733,10191
8990,10514
9092,10675
9106,10714
9222,10861
9436,11081
9491,11126
9245,10810
8893,10374
8619,10024
8470,9816
8470,9816
8399,9702
8330,9602
8140,9382
7982,9197
7968,9174
8005,9203
8002,9197
8024,9214
8013,9193
8097,9269
8225,9411
8295,9486
8301,9481
8222,9379
8212,9338
8177,9306
8136,9249
8086,9179
7962,9042
7879,8931
7830,8885
7787,8834
7731,8763
7633,8658
7551,8565
7445,8452
7290,8264
7127,8073
6941,7864
6734,7622
6541,7420
6354,7199
6238,7064
6159,6979
6104,6914
6075,6885
6032,6831
6006,6803
5925,6711
5832,6602
5779,6537
5689,6436
5611,6351
5492,6213
5382,6087
5302,5987
5207,5887
5162,5835
5096,5757
5036,5691
4993,5639
4925,5563
4913,5547
4889,5521
4854,5480
4864,5494
4847,5477
4868,5491
4852,5480
4827,5451
4863,5489
4863,5489
4833,5455
4823,5435
4746,5358
4681,5281
4650,5244
4625,5216
4638,5228
4614,5205
4578,5165
4542,5124
4504,5083
4505,5082
4483,5059
4398,4972
4345,4916
4290,4858
4282,4846
4253,4815
4205,4765
4195,4760
4149,4703
4120,4670
4097,4650
4079,4633
4087,4643
4068,4624
4073,4614
4086,4645
4092,4652
4113,4672
4117,4682
4162,4716
4189,4759
4215,4794
4265,4839
4282,4867
4316,4902
4332,4931
4333,4930
4347,4939
4305,4905
4281,4879
4279,4886
4283,4883
4298,4899
4295,4903
4292,4895
4300,4908
4294,4901
4310,4918
4310,4918
4316,4927
4325,4936
4354,4965
4348,4963
4368,4988
4367,4985
4367,4983
4383,4996
4374,4996
4407,5040
4413,5041
4400,5031
4412,5047
4397,5032
4408,5043
4394,5028
4368,5001
4375,5008
4359,4995
4370,5004
4365,5001
4355,4991
4376,5015
4381,5017
4385,5019
4386,5027
4394,5034
4419,5063
4418,5059
4428,5066
4417,5060
4394,5031
4404,5041
4393,5029
4407,5046
4408,5052
4409,5053
4435,5089
4428,5079
4440,5094
4433,5083
4404,5053
4414,5068
4409,5060
4433,5087
4446,5101
4443,5102
4448,5107
4430,5089
4441,5086
4456,5110
4454,5115
4481,5138
4470,5134
4483,5133
4489,5148
4502,5167
4465,5126
4476,5144
4483,5152
4509,5185
4523,5198
4566,5237
4580,5262
4591,5275
4617,5300
4617,5304
4634,5321
4619,5312
4597,5284
4589,5278
4548,5233
4529,5210
4505,5183
4488,5169
4521,5202
4555,5239
4629,5319
4713,5410
4815,5520
4990,5712
5157,5884
5320,6057
5420,6160
5489,6230
5566,6313
5603,6349
5647,6379
5678,6416
5682,6426
5680,6419
5615,6351
5615,6351
5566,6283
5483,6200
5410,6126
5387,6092
5359,6066
5386,6090
5432,6157
5489,6216
5576,6303
5596,6340
5602,6346
5583,6330
5534,6270
5515,6247
5484,6223
5468,6203
5462,6202
5432,6165
5428,6158
5412,6145
5403,6133
5409,6141
5413,6143
5447,6184
5462,6198
5471,6212
5521,6257
5554,6300
5609,6369
5641,6399
5658,6420
5666,6427
5631,6394
5619,6379
5599,6356
5586,6337
5585,6338
5565,6319
5577,6324
5585,6338
5605,6360
5648,6412
5677,6440
5733,6493
5773,6547
5806,6584
5858,6642
5858,6642
5894,6681
5931,6721
5931,6730
5907,6700
5909,6703
5882,6673
5885,6673
5884,6674
5881,6674
5900,6695
5900,6693
5908,6705
5903,6699
5908,6705
5949,6751
5958,6761
5979,6783
5976,6780
5963,6771
5983,6789
5981,6790
5997,6792
5986,6790
5960,6765
5964,6763
5936,6740
5940,6728
5941,6739
5943,6745
5976,6776
5964,6768
5963,6760
5966,6776
5954,6756
5967,6761
5954,6760
5959,6766
5973,6792
5982,6792
5997,6803
5984,6797
5974,6781
5981,6791
5986,6794
6017,6826
6031,6844
6041,6850
6058,6868
6019,6830
6015,6827
6001,6814
5991,6799
6003,6807
6011,6824
6060,6881
6089,6907
6089,6920
6105,6944
6105,6944
6100,6956
6137,7000
6155,7034
6131,7020
6131,7031
6128,7044
6136,7069
6081,7045
6009,6981
5917,6894
5754,6726
5622,6595
5459,6440
5260,6230
5031,5988
4792,5727
4681,5610
4682,5621
4871,5878
4822,5848
4197,5043
3751,4459
3699,4312
3696,4223
3814,4207
4657,4917
5598,5803
6238,6415
6738,6894
7015,7158
7543,7640
9073,9100
12046,12059
15650,15702
20740,20996
25936,26560
31540,32671
37696,39497
44691,47733
50377,54714
54337,59974
56048,62430
56427,63087
57570,64423
59008,694
60306,2380
61267,3613
61581,4022
61607,4008
61607,4008
61725,4153
61837,4358
61923,4544
62028,4781
61848,4643
61471,4253
60981,3764
61122,3936
62098,5034
63297,6389
64271,7505
64973,8311
65492,8823
178,9145
265,9225
324,9247
379,9271
257,9099
193,9046
65442,8728
65139,8328
65457,8835
281,9266
593,9502
6188,13997
5965,14102
5994,14344
6026,14457
6019,14499
6035,14660
6073,14822
6120,14921
6146,14999
6134,15053
6022,15024
5846,14863
5785,14853
5698,14724
5693,14650
5795,14631
6301,14959
7000,15625
7587,16317
7897,16715
8121,17142
8242,17554
8432,17863
8599,18089
8552,17979
8345,17482
8206,17086
8172,16949
8159,16932
8164,17024
8164,17128
8180,17244
8194,17346
8230,17499
8308,17672
8382,17832
8382,17832
8401,17893
8300,17794
8211,17656
8240,17623
8287,17635
8339,17705
8407,17787
8486,17934
8577,18032
8683,18213
8782,18340
8871,18464
8941,18569
9008,18608
9087,18636
9176,18709
9284,18772
9372,18872
9445,18948
9528,19004
9584,19034
9602,19000
9659,19071
9708,19186
9780,19340
9825,19456
9883,19597
9883,19654
9843,19738
9782,19753
9729,19755
9635,19743
9525,19690
9456,19634
9383,19547
9373,19498
9326,19407
9297,19302
9338,19265
9424,19294
9541,19416
9658,19547
9786,19658
9884,19800
9937,19974
10026,20202
9855,20180
9499,19551
9449,19315
9449,19315
9474,19259
9378,19083
8902,18380
7968,16843
7375,15495
7151,14786
6907,14234
6851,14022
6983,14153
7269,14501
7187,14490
6418,13867
5795,13255
5733,13054
5585,12759
5432,12446
5335,12252
5247,11979
5116,11635
4966,11317
4826,11083
4760,10968
4761,10904
4757,10959
4699,10970
4654,10999
4665,11158
4695,11374
4682,11541
4494,11534
4210,11422
3989,11265
3743,11193
3588,11186
3403,11066
3181,10808
2979,10477
2802,10206
2686,10071
2554,10028
2355,9897
1843,9411
1515,9193
2031,9780
2629,10562
3281,11330
3860,11975
4327,12548
4662,12979
4959,13366
5157,13675
5297,13891
5397,14076
5467,14213
5532,14321
5563,14430
5562,14479
5549,14511
5536,14571
5503,14609
5503,14609
5477,14656
5391,14661
5230,14613
5119,14619
4996,14514
4654,13931
4174,12993
3646,12062
2861,10917
2071,9802
1576,9079
1254,8611
877,8095
486,7639
66,7085
65389,6581
65235,6247
65071,5893
64773,5406
64498,4930
64444,4642
64274,4259
64059,3892
64114,3794
64388,4055
64673,4345
64991,4801
65362,5307
257,5943
581,6435
832,6825
1036,7192
1197,7493
1387,7795
1564,8135
1749,8420
1880,8690
1846,8625
1729,8281
1534,7900
1398,7652
1246,7451
841,7026
65435,6085
6,6126
1090,7331
1655,8092
1864,8415
1938,8534
1938,8534
2004,8573
2070,8534
2140,8463
2192,8381
2229,8322
2203,8271
2185,8231
2314,8337
2571,8635
2709,8825
2709,8825
2832,9012
2984,9231
3116,9423
3253,9622
3296,9752
3223,9763
3045,9622
2616,9204
2242,8826
2031,8454
1577,7710
1088,6861
935,6388
595,5822
842,5955
1542,6698
2129,7508
3056,8706
4434,10355
4913,11502
2976,10815
3224,11526
3485,12224
3690,12620
3848,12999
3888,13166
3790,13085
3653,12938
3508,12732
3383,12551
3250,12354
3205,12297
3179,12267
3200,12266
3229,12310
3238,12346
3230,12361
3231,12381
3260,12385
3262,12396
3188,12250
2990,11756
2652,11022
2296,10280
2015,9683
1867,9289
1778,9055
1684,8898
1684,8898
1592,8748
1524,8659
1472,8619
1432,8619
1316,8522
1131,8268
921,8091
750,7839
642,7703
616,7645
645,7708
697,7782
792,7927
923,8150
1060,8368
1192,8595
1299,8788
1367,8915
1400,8975
1381,8943
1303,8847
1122,8584
928,8289
719,7981
489,7611
129,6991
65329,6100
64858,5150
64415,4363
64177,4008
64223,3954
64595,4321
65049,4980
65410,5564
294,6202
648,6800
866,7218
1018,7537
1159,7762
1234,7939
1259,7982
1223,7975
1145,7877
1104,7830
1014,7768
935,7679
787,7509
787,7509
623,7299
459,7095
44,6542
65321,6232
64961,5812
64512,5243
64063,4638
63597,4031
63315,3609
63058,3180
62704,2496
62704,2496
62252,1654
61880,975
61692,645
61601,486
61511,424
61500,348
61360,223
61147,35
60826,65385
60358,64900
59819,64334
59007,63494
58063,62453
57487,61759
57261,61432
57356,61407
57320,61327
57157,61141
57188,61156
57189,61147
57095,61062
57201,61164
57446,61433
57482,61487
57551,61571
57648,61709
57687,61728
57556,61639
57361,61470
57172,61301
56847,60948
56769,60721
56603,60348
56381,59902
56354,59760
56242,59645
56099,59522
56040,59507
55960,59456
55828,59381
55762,59336
55670,59274
55556,59189
55333,58985
55152,58772
54962,58544
54759,58312
54577,58100
54444,57953
54444,57953
54276,57776
54077,57573
53973,57492
53844,57364
53710,57315
53568,57187
53462,57092
53330,56971
53249,56903
53254,56825
53191,56759
53111,56708
53058,56666
53018,56586
52992,56462
52913,56199
52753,55877
52647,55669
52466,55465
52438,55437
52445,55478
52465,55532
52534,55633
52670,55816
52758,55947
52815,56028
52855,56091
52833,56066
52866,56088
52864,56079
52848,56045
52783,55995
52780,55987
52806,56022
52834,56055
52883,56132
52908,56164
52906,56190
52806,56114
52712,56015
52748,56074
52848,56177
52989,56362
53080,56481
53207,56617
53371,56776
53509,56828
53486,56682
53505,56572
53589,56591
53788,56815
53981,57044
54211,57334
54445,57627
54573,57791
54552,57846
54493,57828
54207,57570
54207,57570
53973,57334
53763,57099
53651,56974
53496,56826
53287,56611
53027,56376
52769,56102
52559,55926
52364,55756
52152,55558
52070,55504
52003,55461
51943,55415
51981,55467
51975,55482
51937,55458
52165,55701
52327,55889
52407,55978
52588,56115
52779,56207
52939,56222
53032,56226
53190,56332
53469,56622
53746,56950
53984,57237
54149,57459
54172,57529
54114,57515
53887,57337
53705,57170
53556,56998
53330,56789
53181,56627
53053,56502
52929,56380
52770,56227
52617,56091
52357,55859
52242,55738
52222,55727
52164,55678
52049,55591
51926,55480
51786,55346
51731,55302
51731,55302
51790,55381
51795,55408
51715,55340
51613,55251
51152,54753
50621,54106
50297,53640
49858,53185
49506,52792
49365,52626
49366,52652
49331,52632
49396,52723
49426,52769
49478,52855
49696,53098
49829,53274
50104,53558
50381,53848
50927,54394
51052,54585
51318,54923
51873,55555
52498,56246
53125,56964
53559,57371
53846,57733
54401,58329
55808,59611
57768,61409
59467,63091
60560,64427
61314,65420
62178,1045
63368,2797
64240,4100
64846,4814
65220,5334
65419,5547
14,5606
165,5905
431,6326
733,6837
1017,7358
1278,7794
1475,8150
1630,8371
1790,8642
1867,8824
1907,8965
1748,8777
1531,8450
1237,8004
891,7524
530,7015
86,6435
65109,5772
64543,5065
63959,4340
63353,3686
63353,3686
62694,2895
61889,1960
61010,939
59842,65227
58390,63787
56783,61925
55121,60175
53410,58196
51866,56235
50480,54467
49226,52954
48531,51928
48047,51290
47847,51032
47824,50989
47926,51082
48167,51336
48658,51813
49263,52468
50311,53558
51521,54781
52766,56054
53887,57271
54674,58019
55243,58618
55873,59220
56399,59751
56699,60041
56926,60288
56917,60301
56701,60161
56121,59619
55147,58689
53910,57396
52679,56091
51735,55078
51141,54470
50750,54087
50552,53877
50590,53856
51106,54223
51857,54847
52760,55697
53766,56708
54841,57876
55811,58916
56469,59588
56532,59673
56201,59369
56201,59369
55089,58426
52156,55714
49789,53315
48192,51627
48159,51207
47183,49870
46194,48591
45096,46938
44376,45596
43997,44844
43581,44115
40740,41309
37391,37950
34147,34579
32445,32813
31390,31724
30066,30389
28072,28195
25827,26005
23829,24007
22435,22560
22421,22506
22458,22537
22411,22463
22672,22709
22527,22534
22359,22346
22281,22263
22372,22359
22525,22536
22620,22645
22758,22804
22972,23036
23341,23458
23886,24045
25081,25351
25520,25853
25729,26101
26073,26475
26513,26966
26798,27293
27014,27542
27196,27741
27260,27817
27347,27914
27452,28024
27544,28124
27736,28318
27856,28440
27633,28184
27299,27798
26785,27233
26038,26420
19393,19663
14086,14306
13509,13877
12737,13289
12430,13081
12435,13159
12818,13603
12818,13603
14853,15932
16421,17789
16069,17395
15955,17226
15797,17020
16046,17290
16170,17431
16226,17481
16300,17544
16427,17673
16545,17784
16634,17868
16736,17949
16869,18039
19040,20279
22215,23682
24699,26084
28676,30210
32078,33568
33711,34794
33182,33527
31883,31653
30529,29988
28765,28006
26809,25681
26037,24628
26623,25041
27118,25483
26432,24788
25503,23924
24312,22634
23733,22046
24248,22535
24694,23364
26913,27034
26678,27253
26409,27083
26922,27757
27327,28310
27957,29007
28865,30018
29675,30969
30027,31356
30085,31769
31232,33068
31166,33032
30868,32769
30868,32769
31002,32987
31087,33057
31400,33353
31451,33395
31443,33293
31391,33033
31397,32665
32018,33278
32331,33702
32560,33999
32827,34448
33401,35192
35342,37388
37771,40146
40301,42940
42899,46013
45687,49291
49064,53156
52771,57314
55196,59990
56693,61733
57873,63124
59534,64891
61241,1150
64412,4776
143,6623
629,7464
997,8048
1198,8276
1356,8495
1520,8734
1719,9053
1870,9310
2010,9519
2127,9708
2205,9855
2293,9968
2393,10157
2514,10353
2600,10509
2655,10603
2695,10716
2734,10739
2634,10559
2491,10150
2299,9693
2175,9357
2102,9182
2088,9116
2129,9195
2184,9345
2241,9442
2302,9540
2356,9637
2449,9811
2461,9928
2508,9970
2505,9957
2515,9934
2496,9932
2496,9932
2517,9961
2535,10021
2589,10125
2648,10213
2666,10276
2701,10353
2729,10410
2794,10548
2853,10657
2880,10723
2904,10819
2929,10847
2950,10906
2964,10952
2920,10856
2804,10565
2619,10122
2467,9743
2384,9533
2386,9525
2431,9594
2505,9759
2580,9898
2656,10099
2766,10315
2871,10554
3002,10822
3105,11061
3161,11155
3174,11214
3186,11219
3179,11234
3188,11238
3180,11209
3161,11179
3131,11140
3082,11036
3022,10925
2944,10797
2923,10732
2900,10703
2890,10689
2872,10668
2823,10597
2832,10586
2810,10569
2768,10480
2632,10198
2632,10198
2459,9773
2280,9394
2190,9137
2165,9064
2149,9030
2182,9114
2213,9197
2256,9288
2304,9396
2350,9515
2367,9579
2397,9633
2339,9601
2359,9588
2361,9594
2365,9601
2350,9611
2350,9623
2394,9721
2416,9797
2445,9835
2461,9882
2459,9913
2483,9960
2497,10012
2526,10076
2549,10145
2574,10193
2611,10291
2622,10314
2633,10333
2570,10243
2457,9917
2304,9569
2179,9259
2150,9143
2116,9101
2157,9167
2174,9248
2207,9332
2258,9433
2303,9526
2297,9587
2300,9553
2270,9492
2214,9383
2193,9316
2154,9251
2135,9196
2102,9158
2101,9135
2071,9119
2079,9120
2082,9138
2097,9160
2110,9230
2136,9267
2152,9314
2152,9314
2179,9386
2190,9427
2219,9464
2239,9555
2222,9558
2198,9472
2083,9223
1925,8847
1788,8497
1675,8245
1640,8169
1635,8188
1706,8289
1727,8359
1754,8413
1775,8482
1831,8628
1877,8728
1897,8798
1903,8775
1882,8747
1876,8721
1854,8688
1873,8716
1873,8723
1882,8765
1845,8742
1846,8716
1803,8608
1742,8510
1680,8415
1655,8355
1641,8343
1627,8318
1646,8331
1644,8363
1674,8426
1653,8395
1563,8223
1397,7857
1260,7513
1153,7272
1140,7197
1165,7266
1218,7357
1237,7452
1309,7578
1386,7721
1386,7721
1419,7851
1472,7932
1479,7957
1479,7967
1456,7922
1418,7887
1391,7829
1357,7764
1383,7822
1438,7944
1475,8043
1475,8043
1551,8164
1596,8297
1653,8421
1714,8541
1750,8653
1809,8762
1831,8842
1870,8916
1882,8991
1896,8994
1835,8901
1710,8590
1539,8186
1425,7877
1344,7708
1334,7689
1351,7715
1381,7805
1418,7881
1456,7950
1491,8045
1518,8080
1544,8137
1540,8141
1534,8114
1515,8064
1505,8057
1500,8071
1516,8083
1476,8060
1445,7987
1385,7926
1379,7904
1378,7948
1421,8023
1458,8111
1483,8182
1522,8265
1526,8287
1530,8275
1506,8222
1449,8120
1380,7957
1222,7620
1006,7192
848,6793
727,6512
655,6370
655,6370
653,6357
635,6366
661,6414
684,6486
721,6565
732,6604
751,6609
725,6567
684,6511
660,6440
609,6358
580,6298
565,6285
552,6244
542,6225
532,6213
534,6220
538,6239
567,6332
566,6370
591,6436
667,6553
720,6698
783,6857
824,6984
885,7099
896,7147
853,7033
753,6838
711,6685
665,6629
704,6667
761,6789
820,6914
886,7034
928,7121
953,7224
988,7285
999,7314
969,7285
923,7168
884,7083
831,6989
815,6952
808,6929
791,6921
798,6932
798,6932
867,7072
843,7080
808,7044
808,7043
800,7039
811,7089
829,7139
853,7233
866,7320
902,7384
894,7357
814,7190
814,7190
695,6887
591,6624
523,6448
478,6309
442,6253
400,6183
394,6166
380,6180
392,6179
399,6204
375,6183
360,6157
324,6103
292,6021
264,5962
258,5941
234,5908
243,5924
252,5925
252,5950
243,5956
249,5982
251,5994
263,6048
284,6086
299,6107
326,6163
320,6195
320,6221
311,6210
280,6116
178,5949
90,5765
0,5597
65501,5504
65481,5436
65475,5448
65486,5470
65496,5509
65525,5575
15,5639
28,5675
25,5678
37,5689
16,5682
21,5658
65532,5642
65530,5655
0,5643
0,5643
65517,5648
65500,5634
65519,5640
65523,5668
65511,5671
65509,5700
65516,5731
65526,5732
65530,5741
65517,5766
65529,5777
65505,5741
65446,5629
65357,5451
65257,5259
65197,5091
65126,4960
65093,4908
65075,4885
65093,4928
65104,4956
65144,5069
