IR Value,Red Value
299,850
297,856
297,856
297,856
296,853
296,853
296,853
299,855
299,855
299,855
295,853
295,853
296,853
296,853
296,853
298,855
298,855
298,855
295,851
295,851
295,851
296,852
296,852
296,852
296,852
296,852
296,852
296,852
296,852
298,855
298,855
298,855
294,852
294,852
294,852
297,854
297,854
297,854
296,855
296,855
296,855
296,852
296,852
297,853
297,853
297,853
294,851
294,851
294,851
298,854
298,854
298,854
296,852
296,852
296,852
295,850
295,850
297,854
297,854
297,854
295,852
295,852
295,852
296,852
296,852
296,852
297,852
297,852
297,852
295,850
295,850
296,853
296,853
296,853
294,850
294,850
294,850
297,853
297,853
297,853
296,854
296,854
296,854
294,851
294,851
294,851
298,855
298,855
295,852
295,852
295,852
297,854
297,854
297,854
296,854
296,854
296,854
295,850
295,850
297,853
297,853
297,853
294,850
294,850
294,850
297,853
297,853
297,853
297,855
297,855
297,855
294,848
294,848
294,848
297,855
297,855
295,850
295,850
295,850
297,853
297,853
297,853
296,853
296,853
296,853
295,850
295,850
295,850
299,854
299,854
295,851
295,851
295,851
296,851
296,851
296,851
297,855
297,855
297,855
295,850
295,850
295,850
297,852
297,852
297,852
295,851
295,851
296,851
296,851
296,851
297,854
297,854
297,854
294,851
294,851
294,851
297,853
297,853
297,853
294,850
294,850
294,850
296,851
296,851
297,853
297,853
297,853
293,849
293,849
293,849
296,854
296,854
296,854
295,851
295,851
295,851
296,851
296,851
298,853
298,853
298,853
293,848
293,848
293,848
296,852
296,852
296,852
295,852
295,852
295,852
297,852
297,852
297,852
297,854
297,854
296,850
296,850
296,850
297,854
297,854
296,850
296,850
296,852
296,852
296,852
295,848
295,848
297,853
297,853
297,853
295,850
295,850
295,850
296,850
296,850
296,850
297,853
297,853
293,848
293,848
293,848
297,852
297,852
297,852
296,852
296,852
296,852
295,850
295,850
295,850
297,853
297,853
293,848
293,848
293,848
296,853
296,853
296,853
295,852
295,852
295,852
297,851
297,851
297,851
297,855
297,855
293,848
293,848
293,848
297,852
297,852
297,852
294,851
294,851
294,851
296,851
296,851
296,851
296,852
296,852
296,852
294,849
294,849
297,851
297,851
297,851
296,852
296,852
296,852
296,851
296,851
296,851
295,852
295,852
295,852
293,850
293,850
293,850
297,853
297,853
296,853
296,853
296,853
297,848
297,848
297,848
298,852
298,852
298,852
295,851
295,851
295,851
296,852
296,852
295,851
295,851
295,851
296,849
296,849
296,849
297,854
297,854
297,854
294,851
294,851
294,851
297,851
297,851
295,852
295,852
295,852
296,850
296,850
296,850
296,853
296,853
296,853
293,849
293,849
293,849
297,852
297,852
297,852
297,853
297,853
296,850
296,850
296,850
298,854
298,854
298,854
294,851
294,851
294,851
296,851
296,851
296,851
296,853
296,853
296,850
296,850
296,850
296,852
296,852
296,852
294,849
294,849
294,849
297,852
297,852
297,852
297,853
297,853
297,853
295,849
295,849
296,852
296,852
296,852
295,850
295,850
295,850
298,853
298,853
298,853
296,852
296,852
296,852
295,849
295,849
296,852
296,852
296,852
294,852
294,852
294,852
296,851
296,851
296,851
296,852
296,852
296,852
295,850
295,850
295,850
299,854
299,854
295,851
295,851
295,851
295,852
295,852
295,852
297,852
297,852
297,852
296,849
296,849
296,849
294,848
294,848
298,853
298,853
298,853
294,851
294,851
294,851
295,851
295,851
297,854
297,854
297,854
294,849
294,849
294,849
297,852
297,852
297,852
294,851
294,851
294,851
295,849
295,849
297,854
297,854
297,854
293,850
293,850
293,850
298,852
298,852
298,852
295,852
295,852
295,848
295,848
295,848
298,853
298,853
298,853
294,850
294,850
294,850
297,851
297,851
297,851
296,852
296,852
294,848
294,848
294,848
296,852
296,852
296,852
295,849
295,849
295,849
296,851
296,851
296,851
296,853
296,853
295,850
295,850
295,850
295,853
295,853
295,853
294,850
294,850
294,850
297,852
297,852
297,852
295,852
295,852
293,850
293,850
293,850
298,852
298,852
298,852
294,849
294,849
294,849
296,850
296,850
296,850
296,852
296,852
296,852
295,849
295,849
298,854
298,854
298,854
294,851
294,851
294,851
297,851
297,851
297,851
297,853
297,853
297,853
294,850
294,850
296,852
296,852
296,852
294,851
294,851
294,851
297,852
297,852
297,852
297,854
297,854
297,854
293,848
293,848
293,848
297,853
297,853
294,850
294,850
294,850
296,852
296,852
296,852
297,852
297,852
297,852
294,848
294,848
294,848
297,852
297,852
295,851
295,851
295,851
296,851
296,851
296,851
296,852
296,852
296,852
293,848
293,848
293,848
297,852
297,852
297,852
294,849
294,849
296,851
296,851
296,851
297,852
297,852
297,852
293,849
293,849
293,849
296,852
296,852
296,852
294,852
294,852
296,849
296,849
296,849
297,853
297,853
297,853
293,848
293,848
293,848
297,851
297,851
297,851
294,851
294,851
294,851
295,851
295,851
296,851
296,851
296,851
294,849
294,849
294,849
297,853
297,853
297,853
295,852
295,852
295,852
294,849
9208,17680
9211,17718
9222,17767
9222,17767
9236,17808
9222,17797
9222,17797
9237,17849
9251,17871
9251,17871
9230,17909
9257,17932
9257,17932
9243,17931
9255,17939
9235,17954
9235,17954
9227,17963
9216,17947
9216,17947
9210,17957
9218,17985
9218,17985
9205,17982
9216,17986
9216,17986
9197,17995
9183,17993
9190,17982
9190,17982
9094,17782
9006,17579
9006,17579
8936,17407
8898,17398
8898,17398
8928,17477
8962,17563
8962,17563
9009,17640
9024,17735
9055,17761
9055,17761
9062,17831
9076,17884
9076,17884
9092,17910
9081,17940
9081,17940
9100,17948
9095,17945
9095,17945
9087,17958
9070,17949
9070,17949
9064,17952
9050,17948
9049,17961
9049,17961
9054,17956
9048,17963
9048,17963
9054,17975
9036,17984
9036,17984
9037,17983
9009,17959
9025,17971
9025,17971
9010,17985
9016,17990
9013,17995
9013,17995
9016,18019
9010,17990
9010,17990
9007,18003
8999,18019
8999,18019
8985,18002
8995,18009
8995,18009
8975,18008
8964,18024
8964,18024
8981,18032
8960,18037
8963,18016
8963,18016
8926,17974
8886,17877
8886,17877
8880,17863
8874,17863
8874,17863
8899,17898
8883,17935
8883,17935
8888,17928
8676,17847
8670,17875
8670,17875
8673,17892
8679,17873
8679,17873
8676,17897
8692,17912
8692,17923
8692,17923
8670,17899
8697,17918
8697,17918
8675,17936
8665,17928
8665,17928
8675,17940
8664,17928
8664,17928
8686,17931
8665,17947
8665,17947
8649,17959
8663,17954
8675,17963
8675,17963
8650,17969
8659,17961
8659,17961
8644,17959
8659,17961
8659,17961
8643,17970
8635,17963
8635,17963
8633,17978
8619,17989
8619,17989
8624,17972
8638,17977
8614,17982
8614,17982
8593,17960
8623,17974
8623,17974
8610,17989
8618,17977
8618,17977
8603,17968
8607,17974
8607,17974
8591,17986
8595,17960
8581,17957
8581,17957
8530,17865
8501,17828
8501,17828
8524,17827
8513,17835
8535,17867
8535,17867
8538,17891
8535,17881
8535,17881
8520,17894
8526,17883
8526,17883
8510,17901
8538,17932
8538,17932
8537,17930
8520,17928
8539,17948
8539,17948
8516,17927
8527,17942
8527,17942
8517,17947
8510,17946
8510,17946
8532,17949
8510,17933
8510,17933
8499,17925
8500,17926
8500,17926
8488,17935
8491,17914
8470,17940
8470,17940
8490,17934
8481,17935
8481,17935
8484,17918
8469,17957
8469,17957
8446,17924
8459,17931
8459,17931
4397,15044
4380,15016
4380,15016
4372,15031
4381,15053
4390,15057
4394,15095
4422,15130
4418,15162
4418,15162
4425,15195
4445,15222
4458,15289
4446,15259
4429,15220
4401,15189
4401,15189
4377,15150
4405,15171
4462,15296
4504,15445
4548,15568
4580,15641
4580,15641
4600,15691
4615,15749
4609,15760
4567,15686
4503,15488
4324,15108
4324,15108
4198,14847
4153,14710
4118,14694
4150,14745
4170,14815
4168,14847
4168,14847
4174,14855
4170,14885
4180,14895
4186,14922
4207,14966
4260,15072
4260,15072
4286,15154
4285,15147
4294,15174
4290,15141
4265,15152
4300,15184
4300,15184
4313,15251
4360,15293
4366,15385
4390,15446
4418,15493
4415,15528
4446,15602
4465,15639
4465,15639
4493,15699
4466,15700
4480,15688
4473,15673
4468,15708
4479,15732
4479,15732
4457,15713
4454,15714
4475,15755
4483,15808
4510,15819
4502,15851
4502,15851
4498,15844
4457,15778
4365,15572
4261,15327
4142,15046
4076,14919
4076,14919
4090,14924
4103,14994
4153,15091
4170,15171
4178,15194
4182,15220
4182,15220
4203,15266
4206,15315
4222,15343
4234,15354
4243,15391
4241,15397
4241,15397
4215,15372
4197,15320
4171,15294
7325,14955
7290,14932
7284,14958
7259,14962
7213,14931
7204,14946
7165,14943
7150,14978
7126,14976
7099,14987
7079,15014
7048,15014
7055,15033
7046,15057
7052,15105
7053,15142
7035,15168
7041,15203
7023,15193
6996,15172
6971,15177
6969,15167
6981,15205
6968,15187
6935,15147
6885,15033
6824,14926
6755,14862
6774,14911
6775,14965
6816,15045
6850,15151
6879,15205
6914,15263
6910,15299
6917,15309
6896,15350
6908,15373
6910,15408
6923,15432
6918,15416
6926,15454
6929,15473
6944,15489
6936,15530
6947,15538
6952,15535
6949,15569
6962,15598
6959,15607
6972,15641
6980,15674
6987,15696
7000,15717
6984,15728
6990,15737
7013,15742
6993,15744
7004,15757
7020,15802
7022,15809
7033,15866
7047,15897
7047,15917
7061,15933
7052,15924
7028,15827
6996,15770
6987,15748
6977,15762
6999,15771
7016,15821
7014,15832
7016,15829
7025,15852
7028,15892
7042,15903
7031,15910
7054,15955
7058,15973
7038,15980
7049,15988
7040,15995
7054,16004
7066,16010
7045,16012
7050,16013
7068,16025
7068,16032
7041,16034
7062,16057
7065,16084
7083,16103
7095,16116
7104,16101
7093,16125
7121,16157
7113,16148
7095,16140
6973,16163
6981,16155
6968,16147
6929,16090
6883,16010
6885,15980
6903,15983
6893,15981
6895,16021
6929,16073
6919,16088
6921,16110
6932,16128
6936,16127
6949,16173
6984,16189
6965,16192
6960,16198
6976,16189
6971,16207
6970,16195
6966,16209
6968,16201
6980,16231
6972,16223
6986,16234
6973,16250
6970,16226
6984,16250
6978,16271
6984,16287
7002,16296
7008,16294
7021,16307
7029,16316
7018,16302
7008,16315
7016,16320
7031,16322
7007,16316
7022,16327
7019,16346
7033,16352
7026,16357
6996,16332
6986,16269
6953,16194
6921,16130
6928,16130
6910,16108
6905,16095
6913,16124
6922,16130
6897,16122
6893,16103
6904,16105
6892,16090
6886,16112
6892,16105
6876,16103
6895,16102
6865,16091
6860,16075
6856,16075
6860,16071
6840,16084
6865,16098
6860,16089
6845,16095
6849,16109
6840,16100
6869,16117
6851,16107
6848,16123
6832,16103
6821,16107
6820,16084
6813,16103
6830,16104
6833,16104
6817,16116
6812,16104
6816,16094
6810,16095
6829,16104
6792,16057
6765,15982
6754,15931
6728,15889
6719,15880
6736,15916
6742,15922
6753,15934
6736,15946
6760,15980
6741,15965
6749,15991
6761,16009
6744,15988
6751,16017
11948,20095
11952,20095
11942,20113
11935,20108
11931,20130
11942,20141
11926,20139
11903,20150
11917,20163
11911,20158
11899,20145
11917,20158
11918,20168
11920,20190
11952,20223
11935,20249
11924,20257
11935,20241
11916,20241
11908,20216
11895,20202
11859,20146
11801,20034
11774,19949
11752,19927
11754,19946
11765,19938
11754,19958
11774,19967
11779,19975
11766,19984
11754,19994
11762,20017
11783,20034
11754,20017
11753,20031
11765,20035
11760,20029
11749,20012
11757,20025
11757,20022
11765,20046
11761,20053
11760,20072
11752,20077
11774,20093
11771,20098
11758,20112
11775,20127
11761,20121
11765,20128
11767,20141
11782,20168
11767,20123
11756,20143
11778,20161
11757,20172
11756,20160
11764,20185
11748,20180
11744,20181
11727,20125
11688,20023
11637,19960
11637,19925
11639,19892
11623,19896
11641,19931
11649,19961
11652,19973
11635,19983
11648,19968
11644,19979
11630,19966
11622,19983
11624,20003
11619,19994
11595,19955
11589,19961
11566,19912
11578,19934
11558,19930
11551,19910
11567,19956
11570,19968
11556,19954
11559,19978
11575,20002
11564,19984
11553,20010
11549,19994
11554,20002
11560,20026
11557,20008
11541,19987
11542,20021
11547,20023
11547,20042
11553,20042
11396,19927
11371,19931
11399,19949
11404,19938
11379,19935
11380,19939
11397,19956
11381,19962
11376,19955
11380,19957
11392,19969
11379,19965
11362,19914
11314,19839
11281,19775
11255,19687
11262,19688
11256,19700
11252,19728
11288,19759
11259,19752
11264,19746
11273,19763
11263,19782
11256,19792
11269,19808
11261,19811
11261,19786
11277,19797
11252,19782
11248,19779
11256,19784
11261,19792
11266,19807
11258,19837
11260,19845
11262,19840
11278,19881
11277,19888
11272,19866
11259,19871
11274,19898
11264,19888
11256,19890
11263,19893
11259,19898
11242,19893
11257,19893
11262,19910
11264,19918
11246,19925
11262,19925
11241,19877
11211,19855
11201,19784
11159,19714
11155,19664
11152,19699
11162,19736
11159,19738
11186,19750
11173,19745
11162,19786
11178,19772
11176,19793
11179,19792
11168,19796
11162,19778
11154,19778
11161,19773
11140,19754
11135,19752
11144,19773
11140,19789
11124,19786
11140,19791
11161,19817
11136,19801
11131,19832
11135,19834
11131,19821
11120,19844
11128,19826
11131,19819
11129,19825
11116,19818
11119,19846
11116,19830
11111,19851
11127,19845
11122,19852
11119,19864
11130,19856
11097,19791
11056,19707
11032,19642
11014,19616
11004,19602
10989,19597
11001,19645
10895,19547
10879,19550
10892,19578
10906,19572
10893,19584
10886,19592
10897,19600
10898,19600
10898,19621
10893,19633
10921,19651
10915,19643
10889,19624
10913,19641
10901,19641
10888,19637
10892,19640
10895,19662
10884,19666
10902,19666
10899,19684
10910,19692
10901,19704
10897,19709
10895,19703
10913,19730
10909,19718
10894,19702
10905,19725
10906,19739
10914,19746
10908,19741
10902,19741
10915,19769
10924,19766
10901,19767
10902,19769
10914,19764
10881,19759
10864,19699
10839,19609
10804,19553
10806,19525
10794,19514
10807,19545
10804,19547
10820,19572
10811,19581
10803,19585
10815,19587
10817,19609
10811,19608
10828,19642
10828,19629
10813,19611
10811,19616
10822,19616
10812,19609
10822,19620
10816,19635
10800,19636
10803,19652
10822,19664
10806,19648
10800,19662
10832,19666
10819,19674
10806,19664
10806,19669
10829,19681
10813,19703
10810,19708
10827,19724
10835,19733
10816,19723
10826,19745
10833,19743
10837,19743
10843,19742
10824,19748
10817,19746
10825,19732
10789,19675
10758,19617
10731,19559
10718,19477
10697,19470
10726,19483
10729,19507
10721,19521
10717,19532
10746,19554
10758,19575
10769,19609
10795,19629
10781,19660
10826,19690
10817,19698
10817,19699
10825,19707
0,0
316,606
299,580
320,605
303,590
313,592
314,601
298,578
319,602
300,588
309,589
309,589
296,577
317,601
301,588
301,588
309,588
314,601
296,578
318,601
302,589
310,587
314,600
294,575
318,601
300,588
309,588
314,600
293,576
317,600
302,589
310,587
315,600
295,577
317,599
302,591
308,587
314,599
295,577
316,599
302,590
308,586
315,600
294,578
319,600
304,592
307,587
316,601
298,580
320,601
307,597
310,590
320,606
299,587
322,605
311,600
310,589
321,608
298,583
321,604
309,598
312,588
320,608
300,584
321,603
310,600
309,587
309,587
320,608
298,584
322,603
312,600
309,588
321,608
298,584
321,606
313,602
311,590
322,609
301,590
322,606
313,603
309,590
323,611
302,591
321,607
315,604
311,590
322,610
303,590
322,605
317,605
307,589
323,612
302,590
322,605
315,606
309,589
324,612
302,591
323,606
314,604
308,587
323,610
300,589
321,603
313,604
305,586
322,609
301,591
319,601
314,603
303,584
322,607
301,589
320,602
314,604
303,584
320,609
300,587
321,599
314,604
302,583
320,607
301,590
318,598
314,603
302,581
320,606
300,589
316,597
313,603
299,581
319,605
301,589
301,589
317,595
313,602
298,580
320,605
300,586
315,596
313,601
298,580
319,605
301,589
315,596
314,603
300,583
319,606
302,591
315,595
314,603
300,582
321,608
302,590
316,596
314,603
301,581
320,605
302,591
315,594
316,604
298,581
319,606
302,590
314,595
314,604
298,581
320,607
302,590
312,592
316,603
298,580
321,605
303,591
311,594
316,604
298,582
319,604
304,591
311,591
315,603
298,581
319,604
303,591
313,591
316,603
297,580
297,580
320,604
304,593
312,593
317,604
297,580
321,604
303,594
312,591
318,602
297,581
320,604
304,594
311,591
317,602
298,581
319,604
305,595
310,589
317,603
296,580
321,603
305,594
310,589
317,604
297,580
319,602
305,595
312,589
316,603
297,581
319,602
306,595
308,586
317,603
296,580
319,602
307,596
308,586
318,604
296,580
319,600
307,596
309,587
317,603
296,581
319,600
307,596
308,586
318,603
297,581
319,602
307,596
308,584
316,603
297,580
319,600
307,595
307,583
318,603
296,582
319,600
309,597
306,583
306,583
317,605
296,580
318,600
309,595
306,583
318,603
297,581
319,600
307,597
303,583
318,602
295,582
318,598
309,597
303,582
318,604
297,584
317,600
309,597
304,582
317,603
297,583
316,598
310,598
303,581
318,602
297,586
316,597
310,599
302,579
318,604
297,584
317,598
309,598
301,580
319,604
297,585
315,596
309,599
301,579
317,602
297,584
316,595
309,598
299,579
318,602
318,602
299,585
316,596
312,600
298,579
318,604
316,596
311,599
299,580
318,603
299,586
316,595
312,601
312,601
299,579
318,603
300,585
314,593
313,600
298,579
318,604
300,587
316,593
313,602
296,578
319,604
300,588
315,592
313,601
297,579
319,602
301,587
315,593
314,601
296,579
319,604
299,586
315,591
312,602
298,578
318,602
300,587
313,592
313,601
296,578
319,604
301,589
312,592
313,601
297,580
318,601
301,589
311,591
314,602
297,580
318,604
302,589
311,591
313,601
295,578
318,602
302,591
311,591
311,591
314,601
297,579
319,603
302,591
310,588
316,602
296,578
320,602
303,592
308,589
317,602
296,580
319,602
303,593
309,588
316,603
294,579
320,602
303,592
309,587
316,602
296,580
320,602
305,593
307,585
316,603
296,580
320,601
306,594
307,584
316,601
296,580
320,601
306,594
306,586
317,603
295,580
319,601
307,594
307,583
317,604
296,581
318,599
308,596
306,583
317,603
296,581
318,599
308,595
306,583
316,602
296,580
317,599
307,596
304,582
318,603
296,583
316,599
309,597
309,597
303,580
317,602
296,583
317,598
309,597
302,581
318,604
296,583
316,598
309,597
302,581
318,603
297,585
317,598
309,598
301,580
317,601
297,586
315,596
311,600
299,579
319,604
298,584
316,595
310,600
298,579
318,603
299,586
315,595
311,600
298,578
319,603
298,585
315,594
312,601
297,578
319,603
300,586
316,595
311,601
298,579
319,602
300,586
316,594
312,600
297,579
318,604
318,604
299,587
313,593
313,601
297,580
318,604
302,588
312,591
315,602
296,577
319,603
301,588
312,591
313,600
296,579
319,603
302,588
312,592
314,601
296,580
319,602
303,592
310,591
315,603
298,581
320,606
304,596
315,596
320,608
300,587
325,611
308,601
317,599
322,613
303,590
326,612
310,603
317,599
322,612
302,589
325,610
310,602
315,596
322,611
299,586
324,609
309,602
313,593
320,609
299,585
322,607
309,598
312,589
319,607
298,585
321,604
309,597
309,586
319,604
319,604
296,582
319,599
308,595
305,582
317,603
294,579
318,598
308,594
306,582
318,602
294,580
318,598
307,594
305,581
316,600
296,581
316,597
306,593
302,580
316,601
296,581
317,597
308,597
301,580
317,602
295,581
316,596
307,596
301,578
317,601
295,582
314,596
308,597
299,578
317,601
296,583
316,596
311,597
299,579
317,602
296,583
316,596
310,598
299,578
316,601
297,582
316,595
316,595
309,598
299,577
317,602
297,585
315,595
311,598
299,578
316,603
299,585
313,592
312,600
296,577
299,585
314,593
311,598
296,577
318,603
297,584
313,591
310,598
297,577
297,577
318,603
299,586
313,593
313,600
296,579
318,601
300,588
313,592
314,602
298,580
302,590
313,594
314,603
297,580
319,605
303,591
313,593
316,603
298,580
298,580
320,605
304,590
311,592
314,603
296,580
318,602
302,592
310,590
315,602
296,579
320,603
302,591
310,589
316,602
296,579
319,602
303,592
310,589
317,601
295,579
318,603
301,590
309,587
315,600
295,577
319,600
302,592
308,587
315,600
295,578
317,597
304,590
307,584
315,601
293,576
317,599
303,590
306,582
314,600
294,578
317,597
305,591
307,582
315,599
293,578
316,596
306,592
306,592
305,581
316,600
293,578
315,596
305,591
306,580
314,599
295,578
314,595
306,592
302,577
315,599
294,578
316,595
308,593
301,578
315,601
293,577
315,594
306,592
301,577
314,599
294,579
316,595
306,593
299,577
315,599
294,579
315,594
307,594
300,575
315,599
294,579
314,593
306,593
298,574
315,599
296,581
315,594
307,593
298,575
316,600
296,581
313,593
307,594
297,575
315,600
296,581
314,590
310,594
296,575
315,599
297,581
313,590
309,597
294,574
316,598
296,581
296,581
313,590
310,596
295,575
315,601
297,582
313,588
309,596
294,574
316,599
297,583
312,589
310,598
294,573
316,599
298,583
313,588
311,598
294,574
317,599
297,584
310,588
310,598
294,575
317,600
299,585
310,588
311,599
293,573
317,600
298,583
309,588
311,597
294,572
316,599
299,585
308,587
313,598
293,573
316,600
298,586
308,585
313,597
293,574
317,599
300,587
308,584
312,597
293,575
293,575
317,598
300,588
306,585
314,599
293,575
317,597
300,588
306,584
314,599
293,574
317,598
299,588
308,584
315,599
292,576
318,597
303,590
306,582
315,599
291,575
317,597
302,590
305,580
314,598
293,575
316,596
306,592
304,580
315,599
293,575
317,596
304,590
305,579
315,598
294,577
315,594
307,592
302,578
315,598
294,577
316,594
305,592
302,578
314,599
294,578
314,595
305,592
302,577
316,599
293,578
314,594
307,593
300,576
315,599
295,579
315,594
307,595
298,575
316,598
293,579
293,579
315,594
308,594
300,575
313,600
295,579
313,593
308,596
298,575
316,600
295,580
315,593
309,594
298,575
315,599
298,582
313,591
309,595
295,574
316,600
296,581
313,590
310,595
296,575
315,600
297,583
313,589
310,596
294,574
317,601
297,582
313,589
310,597
295,573
317,600
298,582
310,586
310,597
296,573
315,599
298,584
309,586
311,598
293,574
317,599
300,585
309,587
313,599
313,599
293,573
317,598
298,584
308,587
312,599
293,574
316,599
299,586
308,586
314,597
293,574
316,599
299,586
308,586
313,597
294,574
315,598
301,589
307,585
314,598
293,574
317,599
300,587
307,584
314,598
294,575
317,598
301,590
308,584
314,598
294,576
315,597
303,591
306,582
314,598
295,575
315,596
304,590
306,581
315,599
292,576
317,595
304,591
304,580
315,599
292,576
316,595
305,590
304,580
314,598
293,577
317,595
306,591
303,579
314,598
295,578
315,595
306,591
302,578
314,598
314,598
295,577
315,595
307,592
301,577
315,600
293,578
315,593
305,592
300,576
316,599
294,579
314,593
307,594
298,575
315,599
295,579
315,594
307,596
297,575
317,599
294,579
314,594
307,594
298,575
315,599
296,580
314,592
307,595
298,575
316,598
296,582
314,591
310,595
296,575
317,599
298,582
312,590
308,596
295,575
316,599
298,582
313,590
310,597
294,574
317,600
296,581
312,587
312,587
310,597
295,574
317,599
299,583
312,588
311,599
293,575
316,600
299,583
311,589
312,598
295,575
316,599
299,585
309,587
312,597
294,575
317,600
299,587
308,586
312,597
294,575
317,600
300,587
308,586
313,599
293,573
317,598
300,587
308,583
313,597
293,575
317,598
300,588
306,584
313,597
294,575
316,596
302,589
306,584
314,598
292,576
318,597
302,591
306,583
314,599
292,574
317,596
304,589
306,582
313,599
294,576
317,595
304,590
306,580
315,599
293,578
315,597
305,592
304,580
304,580
315,598
294,577
315,596
305,591
305,579
314,598
294,578
316,594
305,592
302,578
314,598
293,579
314,594
306,591
300,578
316,599
294,579
316,594
308,594
299,577
316,599
294,579
315,593
308,594
299,575
315,598
294,579
314,592
308,594
298,575
317,599
294,578
314,594
307,593
298,575
314,599
297,582
313,590
309,595
296,575
316,599
296,581
313,590
309,595
296,576
317,599
317,599
295,581
313,590
308,594
295,573
317,600
298,581
313,589
310,595
295,575
315,599
297,582
312,586
309,597
295,574
315,599
297,583
310,586
311,596
294,574
315,600
297,583
310,588
312,598
293,575
317,599
297,584
309,586
312,598
293,576
317,601
298,585
308,586
312,598
294,574
318,598
299,588
307,584
312,598
295,574
317,599
300,588
308,584
314,598
294,575
318,597
300,590
306,583
315,598
292,574
317,597
303,590
306,583
312,597
293,575
316,596
302,590
305,582
314,598
293,575
317,597
304,591
304,591
304,581
316,598
292,575
316,597
305,589
305,580
315,599
293,577
316,595
305,591
304,578
315,600
293,576
316,594
306,591
304,577
315,599
293,577
316,595
305,591
303,577
315,599
292,577
315,594
307,591
301,577
314,599
293,579
315,594
306,592
301,577
315,599
294,579
315,594
308,594
298,575
314,599
294,578
314,593
307,593
299,575
315,598
294,579
314,592
308,594
297,574
315,599
315,599
296,580
313,592
308,593
297,575
314,599
296,581
312,590
309,595
295,573
318,599
312,590
310,595
310,595
295,574
316,599
297,580
313,589
308,595
294,573
315,598
295,581
311,587
311,596
294,572
316,598
296,583
310,589
311,598
294,573
317,599
297,581
310,587
311,596
294,573
316,599
297,583
309,587
311,597
294,574
317,598
298,585
308,585
311,597
293,573
316,598
299,584
309,586
310,596
293,574
317,598
300,587
307,585
313,597
293,574
317,597
300,588
307,584
314,598
292,573
316,598
300,588
300,588
306,584
313,597
293,574
318,596
302,588
307,583
313,597
294,575
316,597
302,589
306,582
315,599
293,572
317,596
303,588
304,580
314,599
293,573
316,597
303,589
305,580
313,597
293,576
316,596
305,590
304,578
314,599
292,574
314,595
304,590
304,577
315,598
294,577
316,595
306,591
303,577
314,598
294,576
314,594
305,590
300,576
314,598
293,576
316,594
306,591
300,576
313,597
293,578
293,578
314,592
299,575
314,598
294,578
313,593
306,593
299,575
315,598
295,580
295,580
314,592
307,593
298,574
315,597
295,580
312,591
308,594
295,572
316,598
295,579
314,590
309,594
296,573
315,598
296,580
314,590
309,593
296,574
315,599
297,580
311,588
309,594
295,573
316,598
297,581
313,587
309,595
294,574
315,599
296,581
312,587
310,595
294,573
317,599
297,581
312,586
310,594
294,574
315,598
299,582
311,587
309,596
293,573
317,598
298,583
309,587
309,587
312,596
293,574
315,597
299,584
309,585
311,596
293,573
316,597
299,585
307,584
313,596
293,573
316,599
299,587
306,584
312,596
293,573
317,596
300,588
306,583
313,597
292,572
316,596
301,589
307,582
313,598
291,573
317,596
300,587
305,582
313,596
293,574
317,596
302,589
307,581
314,599
292,573
316,595
303,588
305,580
315,599
296,579
319,598
308,596
311,590
325,612
305,593
331,613
320,609
317,594
325,610
302,585
322,603
310,596
306,582
317,602
296,579
317,595
307,592
307,592
305,579
317,600
295,579
316,595
308,592
303,577
316,599
293,577
316,593
306,592
302,576
314,597
294,577
315,594
306,591
301,576
315,597
296,578
313,592
307,590
299,574
315,597
296,579
314,592
308,593
299,576
315,599
295,579
315,592
308,595
299,574
317,600
295,580
315,592
309,594
298,575
316,598
297,581
315,592
310,596
298,578
317,600
299,582
317,593
311,595
299,577
317,600
300,584
300,584
316,593
312,600
297,577
318,602
299,584
315,592
311,598
297,577
317,602
300,584
316,590
313,598
296,576
318,600
298,582
313,589
313,597
296,575
318,600
298,583
312,587
311,597
294,573
318,599
299,583
312,587
311,597
295,573
315,599
297,582
310,586
309,595
295,574
317,597
298,584
309,586
313,597
294,574
318,598
300,586
308,586
313,598
296,576
318,598
301,588
308,585
313,598
294,574
319,599
301,590
307,587
314,600
294,575
318,597
301,589
308,585
313,598
296,576
317,597
303,588
303,588
309,584
315,597
296,577
316,596
303,589
307,583
315,596
293,575
317,596
304,590
305,582
315,598
296,576
316,595
304,590
305,579
315,597
293,575
316,594
305,591
306,579
315,600
294,574
316,595
305,589
306,579
315,598
294,577
316,595
305,590
304,579
314,597
295,577
315,594
307,592
303,579
317,600
295,578
315,595
306,593
302,578
314,599
295,577
316,594
306,592
301,577
317,599
295,579
295,579
316,594
307,592
300,575
315,598
295,579
315,592
307,591
300,575
314,596
294,576
314,592
306,591
297,572
315,597
295,578
314,591
307,593
296,572
316,597
294,577
312,589
306,592
295,572
315,599
295,577
313,589
307,593
296,573
315,596
296,579
311,585
308,593
294,571
315,596
294,579
312,586
309,592
295,572
314,596
297,580
309,584
309,593
295,571
315,597
297,581
310,584
310,594
292,570
315,597
296,580
310,585
311,595
293,572
316,596
296,581
308,584
308,593
293,572
315,596
315,596
297,582
309,584
310,595
294,573
315,596
299,584
307,584
310,593
292,572
314,595
300,585
306,582
311,596
293,573
314,594
300,585
304,582
312,595
293,573
315,595
301,587
305,581
313,596
291,571
315,594
301,586
305,581
312,595
293,572
315,594
302,587
303,578
313,596
291,572
314,592
303,587
305,577
313,596
292,573
315,594
303,587
303,577
313,596
292,573
314,592
304,588
301,575
313,595
313,595
292,573
315,592
304,588
301,575
314,595
292,575
314,591
305,587
299,575
314,597
294,576
313,592
304,590
299,573
312,595
293,576
312,590
306,589
300,573
314,596
293,578
311,590
306,591
296,574
314,596
294,578
312,590
306,591
297,573
313,595
296,579
311,588
307,591
296,572
315,596
296,579
312,588
308,593
294,571
314,596
295,579
313,587
307,592
295,571
314,596
296,578
311,585
308,593
294,571
314,595
297,581
309,586
309,593
294,572
316,596
297,580
309,584
309,584
308,594
293,573
315,596
296,579
309,585
308,593
294,572
315,597
298,582
309,585
309,594
293,571
316,596
299,583
308,583
310,595
292,572
315,596
297,581
308,585
311,594
293,571
315,594
300,584
308,583
311,594
293,573
314,595
299,586
307,582
312,595
293,573
314,595
300,585
306,583
311,595
292,574
314,594
300,586
305,580
312,595
291,572
315,594
302,587
305,580
312,596
293,574
293,574
315,593
302,586
305,579
313,595
292,572
315,593
302,587
303,577
313,595
292,573
315,593
302,589
304,576
313,596
293,573
314,592
303,587
303,576
313,595
294,574
315,593
305,590
301,574
313,596
293,575
314,592
305,589
300,575
313,596
294,577
313,590
306,590
299,573
314,596
293,576
312,590
306,590
299,572
314,596
294,577
313,591
305,590
297,572
313,596
293,577
312,590
308,592
297,571
315,597
294,578
313,589
306,590
295,572
314,595
295,578
311,587
311,587
309,593
295,572
314,597
295,577
312,587
308,593
296,572
313,595
296,578
311,586
310,593
295,571
314,594
296,579
310,585
309,593
295,572
315,595
297,580
309,585
310,595
293,571
315,595
299,582
308,585
310,595
293,571
315,597
297,581
310,583
309,594
293,572
314,596
298,582
307,583
310,595
293,573
314,595
299,583
306,582
311,595
292,572
315,595
300,585
307,582
312,595
292,571
314,594
300,585
306,582
306,582
313,596
293,573
315,594
301,587
305,580
312,595
292,572
315,594
302,586
304,579
313,596
291,573
315,593
302,587
304,578
313,596
291,572
314,594
301,587
304,577
313,595
293,574
315,592
303,587
304,577
312,595
292,574
314,593
304,588
302,576
313,597
292,575
313,591
305,589
301,575
312,595
293,575
314,591
306,589
300,575
313,596
294,574
314,592
304,588
300,574
312,595
295,578
312,590
304,590
299,573
313,595
292,576
313,590
305,590
298,573
314,596
294,578
294,578
312,589
306,591
297,572
314,596
294,578
312,589
307,590
297,572
314,595
292,578
313,589
308,592
295,571
315,595
295,577
311,588
306,592
295,572
315,596
295,578
312,587
307,592
296,572
315,596
298,579
312,586
309,593
294,571
315,597
295,578
311,586
308,592
293,571
315,596
297,580
309,583
309,594
294,572
315,595
297,581
309,584
308,593
292,571
315,594
296,580
309,583
309,583
310,594
293,572
314,596
297,581
306,582
311,594
293,572
314,595
298,583
307,581
311,595
291,571
314,594
298,583
306,583
310,594
294,572
314,594
298,584
304,580
311,594
293,572
315,593
298,585
305,581
311,595
292,571
315,595
298,584
304,580
312,594
294,572
315,594
300,587
306,581
311,595
292,573
314,593
300,587
304,579
312,594
293,572
315,592
302,588
303,578
314,596
292,572
315,593
301,588
303,578
312,595
292,573
314,592
304,588
303,576
313,596
293,573
315,592
303,588
302,575
302,575
313,595
292,573
314,592
303,588
302,576
313,594
293,575
314,592
304,587
302,574
313,595
292,575
313,590
304,588
301,574
313,596
294,574
314,592
304,589
300,575
313,595
293,575
314,590
306,590
298,573
314,595
293,576
314,590
305,590
298,573
314,595
294,577
312,589
306,591
296,572
314,595
293,578
312,588
305,591
296,572
314,596
295,577
312,590
307,592
296,571
315,596
293,577
312,588
312,588
307,592
296,571
314,595
312,589
306,592
296,573
315,596
296,578
312,588
306,591
306,591
295,572
314,595
296,579
312,588
307,592
296,572
313,596
297,578
312,588
308,593
295,572
314,596
297,580
311,586
308,594
293,572
314,596
298,580
309,586
310,593
293,570
316,595
296,581
310,584
310,595
294,573
314,595
297,580
309,584
310,596
294,573
316,597
298,582
309,586
310,596
294,573
315,597
298,582
308,585
311,595
293,573
317,597
299,586
309,586
312,597
312,597
293,573
317,599
299,583
309,585
313,596
295,574
317,598
299,585
308,584
314,599
295,573
317,597
301,588
308,584
314,597
294,574
316,597
300,589
306,583
315,598
293,572
317,597
300,586
308,583
313,597
293,575
318,597
301,588
307,582
314,597
294,572
317,596
302,589
306,582
315,599
294,575
317,597
304,589
306,581
316,598
295,577
318,598
306,591
308,582
317,601
296,579
321,600
310,596
311,587
322,609
304,588
327,609
319,608
319,595
331,619
312,598
336,619
328,618
325,604
340,631
320,612
320,612
345,634
339,634
337,622
350,644
327,621
340,629
327,621
318,601
331,621
308,601
329,614
323,618
316,603
339,636
320,618
340,620
330,618
326,603
344,630
324,611
345,627
338,626
325,604
340,625
316,604
331,610
322,610
310,589
325,608
304,590
320,597
314,599
301,579
319,601
300,584
315,591
312,595
298,574
317,600
299,580
315,589
309,595
295,574
314,597
297,581
311,587
308,594
295,571
295,571
315,597
297,580
312,588
309,595
295,573
315,597
297,582
311,586
312,598
294,572
317,598
299,583
310,586
312,595
294,572
317,597
298,582
310,586
310,596
294,573
317,598
299,583
310,587
314,598
294,574
316,598
300,584
310,585
314,598
295,575
317,600
299,586
310,587
314,598
296,575
318,601
303,589
310,588
316,600
295,576
319,600
302,588
310,586
315,599
294,575
318,598
302,590
308,583
313,596
294,575
316,596
300,587
306,582
312,596
292,572
317,595
302,588
306,582
312,596
292,574
292,574
315,594
303,587
306,580
315,597
293,573
315,595
304,589
304,578
313,596
291,573
316,593
304,589
304,576
313,596
293,572
316,592
304,587
302,576
314,596
292,574
316,593
305,591
302,575
316,598
291,573
315,592
305,589
302,576
313,596
293,577
315,592
306,591
299,573
316,597
292,576
313,593
306,592
299,574
315,596
294,577
314,592
307,592
297,573
315,596
293,576
315,591
315,591
308,592
297,573
316,598
294,578
314,591
305,592
297,573
314,595
294,577
312,590
308,594
295,571
316,597
296,577
313,588
308,593
295,572
314,597
295,578
313,586
309,592
294,572
315,597
296,580
312,586
309,593
294,571
315,596
296,580
312,586
309,594
294,571
316,597
296,579
310,585
310,595
294,571
316,597
296,580
310,586
310,596
293,571
315,597
297,581
309,585
310,595
293,570
316,596
296,582
308,583
311,596
292,571
316,597
297,581
308,584
310,594
293,573
316,595
297,583
297,583
308,582
311,595
293,572
316,596
299,585
306,582
311,594
293,571
315,595
299,585
308,581
313,595
292,573
316,596
300,587
307,581
314,597
291,572
315,595
300,586
306,581
312,595
294,573
317,596
300,587
305,582
313,595
293,573
315,594
303,587
305,580
313,596
292,574
316,594
303,588
304,579
314,597
294,574
315,593
304,589
304,576
313,596
292,574
316,593
305,588
303,575
312,596
312,596
293,575
315,593
307,590
301,577
315,597
292,574
315,593
303,589
302,576
314,596
291,575
314,592
305,590
301,575
314,596
293,576
313,591
306,590
300,574
315,596
293,577
313,592
306,590
299,573
314,597
293,576
313,592
307,591
297,573
313,595
294,576
312,590
305,590
297,573
316,597
295,578
311,588
307,592
296,573
315,597
295,578
314,588
308,593
295,572
315,597
296,577
313,589
307,591
295,571
315,596
296,578
312,588
308,594
294,572
314,596
296,579
296,579
309,593
294,571
294,571
315,595
298,579
312,585
310,594
293,572
313,595
297,581
311,584
309,594
293,570
316,596
297,581
309,585
309,595
295,572
315,595
297,581
308,584
310,594
293,571
315,596
297,582
308,583
311,596
293,570
315,596
298,582
307,583
310,595
292,571
315,595
299,583
309,583
313,595
293,571
316,596
298,583
307,583
311,595
294,572
315,595
299,584
307,583
312,594
292,573
316,595
301,586
301,586
307,582
313,596
292,572
316,595
300,587
305,582
312,596
294,572
315,594
301,588
305,580
314,596
293,574
315,594
301,588
305,580
313,597
293,574
315,595
303,589
304,577
313,596
292,575
316,594
302,588
304,578
313,596
292,573
315,594
304,588
303,577
314,596
292,574
314,593
305,589
303,576
313,597
291,573
316,593
305,590
302,574
315,597
293,575
315,593
305,589
300,574
314,596
293,576
316,592
306,591
299,574
314,597
291,575
315,592
304,589
300,574
300,574
314,598
293,576
315,591
306,591
299,574
315,597
295,578
313,590
306,592
297,572
314,597
294,577
312,591
307,592
298,572
315,598
293,577
313,590
307,592
297,572
316,596
296,578
312,590
308,594
294,573
314,597
296,579
312,587
308,594
294,571
316,596
296,578
313,586
308,593
295,571
315,596
297,579
311,587
309,593
295,573
314,597
297,579
311,586
309,593
295,572
315,596
296,581
310,584
310,584
294,572
294,572
297,579
310,586
311,596
311,596
315,597
315,597
297,582
308,584
311,595
293,570
315,595
298,580
306,583
312,594
292,571
299,583
306,583
311,594
311,594
292,572
316,595
297,584
308,582
312,595
292,571
316,596
298,584
306,582
313,595
293,573
315,597
299,584
305,581
314,596
293,572
315,595
300,586
305,582
313,596
292,571
316,595
300,586
307,580
314,596
293,573
316,596
302,588
306,581
314,596
293,571
317,596
302,588
305,579
313,596
292,573
315,595
304,588
305,578
314,596
293,574
316,594
303,589
303,576
314,598
292,574
316,594
316,594
304,588
304,577
313,594
292,575
315,593
304,589
302,575
314,597
293,575
315,594
305,589
301,576
315,597
292,574
315,591
306,590
300,574
315,597
294,576
315,592
306,590
300,575
313,596
293,578
314,591
306,592
298,573
315,596
293,578
314,592
306,593
298,574
315,596
294,577
314,591
308,592
297,573
316,599
295,578
314,591
306,592
296,572
315,597
295,581
312,588
307,591
307,591
295,573
317,598
296,580
308,593
294,574
315,597
296,579
311,586
309,595
294,571
315,598
315,598
297,581
311,586
310,594
295,571
315,597
298,580
311,586
310,594
294,573
315,597
298,582
310,585
310,595
293,572
316,596
298,581
310,585
311,595
293,570
315,597
297,580
307,584
311,595
293,573
316,598
299,584
307,582
313,595
293,572
316,598
299,585
308,584
311,595
293,572
315,597
300,587
308,583
313,596
294,573
316,596
300,586
306,581
314,597
292,573
315,595
300,586
300,586
305,581
313,597
293,573
316,594
302,588
305,581
313,596
293,573
314,594
304,587
304,579
313,597
292,574
316,595
304,589
305,578
315,597
292,574
317,595
305,588
305,578
314,597
292,575
315,593
305,589
302,576
314,597
292,574
316,594
306,589
301,576
315,597
293,575
314,594
304,590
301,574
313,597
293,577
315,593
306,591
300,574
315,597
293,577
313,592
305,591
299,572
314,597
294,578
313,591
306,593
297,572
315,597
293,577
313,590
308,593
297,573
316,598
295,577
314,592
306,592
297,574
297,574
314,598
294,579
312,588
307,594
294,572
316,598
295,581
312,589
308,596
294,571
315,597
296,580
312,587
310,594
293,572
314,597
296,579
312,587
310,593
294,572
316,596
298,581
310,585
310,595
293,570
316,596
296,581
305,590
299,574
315,597
293,579
313,592
306,591
297,572
315,597
293,578
313,589
308,592
298,573
316,597
293,578
315,590
308,591
296,573
315,597
295,577
312,591
307,592
297,572
315,599
315,599
296,579
313,588
306,594
294,571
315,596
295,579
312,588
309,594
294,573
316,598
297,579
312,586
309,594
294,571
315,598
297,580
310,586
310,596
293,571
315,598
297,580
311,585
310,595
294,572
317,598
297,581
310,585
309,594
293,572
314,595
298,582
309,584
310,595
293,572
317,597
299,583
309,584
312,598
293,571
316,597
297,583
307,583
312,597
292,572
315,596
299,585
299,585
308,583
313,597
293,573
317,597
299,587
307,582
312,596
293,572
317,596
300,586
308,584
314,597
292,573
316,595
301,587
306,582
313,597
292,574
316,594
302,587
304,580
314,597
293,573
316,596
303,589
304,578
313,597
293,573
316,594
304,589
305,578
313,599
292,573
316,594
304,587
304,576
314,596
293,573
316,594
306,588
304,576
314,597
293,576
316,593
306,590
302,575
315,598
293,575
315,593
305,590
300,574
315,596
293,576
315,592
307,591
300,574
315,597
294,577
314,591
314,591
307,592
298,573
315,598
293,577
315,590
306,591
298,572
315,598
295,578
314,592
307,592
297,573
316,599
295,578
313,590
308,593
296,572
316,598
296,578
313,590
308,593
294,573
315,597
296,580
313,589
310,594
294,572
316,598
297,579
313,587
310,596
294,572
315,597
298,581
311,585
309,596
293,572
317,598
296,580
310,586
310,595
294,572
316,598
298,581
311,586
311,595
293,571
293,571
316,598
297,583
308,585
312,596
293,572
316,597
299,583
310,585
311,597
294,572
317,598
297,583
308,585
313,597
294,572
316,598
299,585
309,584
313,598
292,572
317,597
299,585
308,583
312,596
294,574
317,599
299,586
307,584
313,597
292,572
317,597
301,588
308,584
314,597
294,574
316,596
301,588
306,583
314,598
292,573
316,596
301,588
305,581
313,597
293,573
315,595
304,588
305,580
313,597
293,573
316,595
303,590
305,580
314,597
292,574
316,595
303,588
303,588
304,578
314,597
293,574
316,593
305,590
305,578
314,597
293,576
314,593
304,588
302,576
314,596
293,576
314,593
305,590
302,576
315,598
294,577
314,593
306,591
301,575
315,597
292,577
315,592
306,591
300,575
314,599
293,577
315,593
305,591
300,575
315,598
294,577
314,592
305,592
298,574
314,597
295,578
312,592
307,592
298,574
315,598
296,579
315,591
308,593
297,574
315,598
297,579
297,579
307,593
297,573
297,573
316,598
296,579
313,590
308,594
295,573
315,597
298,579
313,589
308,594
295,572
314,596
296,580
312,587
309,594
295,573
316,597
298,581
312,586
312,596
294,573
314,596
298,581
310,586
311,595
294,573
316,597
298,583
309,585
310,594
293,572
316,598
297,581
310,585
309,596
292,572
316,597
299,582
308,586
312,595
293,574
316,597
299,585
308,585
312,597
294,573
316,596
300,585
307,583
313,597
293,573
316,597
300,588
306,583
312,597
292,572
316,595
316,595
301,587
308,584
314,596
293,574
316,596
301,588
305,582
314,597
294,573
316,596
302,587
305,581
314,597
292,574
315,594
304,589
304,578
315,597
294,574
316,595
304,587
304,578
313,596
293,574
315,594
306,589
304,577
314,597
293,576
315,594
306,590
301,575
313,596
293,576
314,592
306,589
301,576
314,596
293,576
315,593
305,590
301,574
315,596
293,577
314,592
307,591
299,574
299,574
314,596
294,578
312,589
307,591
298,574
313,596
294,577
311,590
307,591
296,573
315,596
295,580
313,589
307,593
296,573
316,597
297,579
312,587
308,594
294,572
317,597
295,579
312,586
310,595
294,572
315,597
295,579
311,586
310,595
294,573
316,597
295,580
311,586
309,594
294,571
315,598
296,581
309,585
311,594
293,571
315,598
297,581
308,584
311,595
294,573
315,597
298,582
308,585
311,595
293,572
316,596
298,584
308,584
312,597
292,571
316,596
298,584
307,582
307,582
314,596
293,572
317,596
299,585
308,583
312,595
293,573
316,595
300,587
306,581
311,595
292,573
317,595
299,587
305,580
312,595
292,573
316,595
303,588
305,579
312,596
292,575
315,594
304,589
304,578
314,598
292,573
316,595
303,589
305,577
313,596
293,574
315,593
304,589
302,576
312,596
293,575
315,593
305,591
301,574
315,598
293,576
314,592
307,590
300,575
316,597
293,576
293,576
315,593
306,591
299,574
314,597
294,576
315,592
307,592
299,573
294,578
314,591
307,593
297,572
297,572
315,598
294,576
313,590
307,593
297,573
315,598
295,579
313,589
309,593
297,574
314,597
296,580
312,586
308,593
295,573
316,596
296,580
312,586
309,593
293,570
316,597
296,578
311,586
310,594
294,571
316,597
297,581
311,587
310,594
295,571
314,596
298,581
310,586
310,594
293,572
316,596
298,582
308,583
311,595
293,572
314,597
299,581
309,583
311,595
294,573
315,596
299,584
299,584
307,582
312,596
294,572
316,596
299,585
307,583
313,595
291,571
316,596
301,586
306,581
313,596
293,572
316,595
301,587
305,582
313,597
293,572
316,594
301,586
306,581
314,596
293,573
315,594
302,588
304,580
315,597
293,573
317,595
305,589
308,582
319,600
300,581
324,603
316,600
317,594
328,612
314,595
323,602
318,600
315,591
321,599
303,582
312,591
306,585
305,578
307,586
298,575
298,575
302,581
300,575
306,585
296,574
307,582
303,583
300,573
306,585
297,574
304,580
304,580
300,580
298,571
305,581
294,571
304,578
301,580
295,569
306,583
294,573
305,581
303,585
298,573
310,589
293,575
311,587
307,590
298,574
314,595
295,578
313,590
307,592
297,573
314,596
296,579
312,588
306,591
297,573
314,595
295,579
312,588
308,592
297,572
315,595
296,581
311,586
309,594
295,571
315,596
296,580
312,587
310,595
296,572
314,596
298,580
311,586
311,594
311,594
294,574
315,597
297,582
312,588
310,596
294,572
317,597
297,580
310,586
312,596
295,573
315,597
297,582
310,587
312,596
292,572
316,598
298,582
310,585
312,596
294,573
317,598
297,581
308,584
312,595
294,572
316,597
300,584
308,584
313,596
292,572
318,598
299,585
308,585
312,596
293,573
316,597
299,585
307,583
313,597
293,572
316,596
300,586
308,582
313,597
294,573
316,597
299,585
306,582
312,596
294,573
316,594
299,586
306,582
311,594
294,574
315,593
301,587
305,580
312,594
312,594
293,572
314,592
300,584
305,579
311,591
293,573
311,589
300,583
302,578
309,589
293,573
311,588
301,583
301,575
308,588
294,572
309,585
300,582
301,575
308,588
294,573
308,584
300,582
299,575
307,586
294,573
307,583
300,582
300,575
307,587
294,572
306,583
300,580
300,575
305,585
293,572
305,581
300,581
300,573
307,585
294,572
305,581
301,581
298,572
306,583
295,574
304,579
302,581
302,581
296,571
305,583
294,573
305,580
301,582
297,572
306,585
295,574
305,581
301,582
297,572
304,584
296,575
304,579
301,581
297,572
303,583
296,575
303,579
302,581
297,572
305,584
296,575
302,579
301,581
296,571
305,582
294,574
304,579
301,581
296,571
304,585
294,574
304,580
301,581
297,570
305,582
297,575
303,579
302,582
294,570
305,583
294,574
303,578
301,581
295,569
305,583
296,575
305,579
302,582
295,571
304,583
296,575
303,577
302,583
294,569
306,583
296,576
296,576
303,578
302,584
294,570
307,584
295,574
305,578
303,584
295,570
305,584
295,574
302,578
303,583
294,570
306,584
295,575
301,575
301,583
295,570
304,582
297,575
302,577
302,582
294,571
304,582
297,575
300,575
303,583
293,568
304,583
296,576
302,575
304,584
293,570
306,584
296,575
301,575
303,581
295,571
305,582
297,576
300,577
302,582
292,570
305,581
297,577
299,574
299,574
303,583
293,571
304,581
296,577
301,576
303,583
293,571
306,582
297,577
301,574
303,583
293,571
304,581
296,577
301,575
303,581
293,570
305,581
299,579
299,576
304,583
295,570
305,580
298,578
299,572
304,583
293,569
306,581
297,578
300,576
304,582
294,572
305,579
298,579
299,573
304,583
293,569
306,582
298,579
300,575
303,582
293,570
304,580
299,577
297,572
304,583
294,571
305,580
300,579
298,572
306,584
292,571
304,580
299,579
298,572
304,583
294,571
294,571
305,581
300,580
298,571
304,583
294,571
303,578
300,579
298,570
305,582
293,572
304,578
299,579
296,571
304,582
294,573
305,580
300,579
298,570
305,583
293,570
304,578
300,580
298,571
305,582
294,572
304,580
299,580
297,569
305,583
292,572
303,578
300,580
296,569
304,582
294,572
303,579
300,580
297,570
304,582
294,574
302,578
301,580
295,570
306,583
295,574
303,578
301,581
294,570
305,582
305,582
295,573
303,577
302,582
295,570
306,582
295,574
303,578
302,581
294,568
306,581
295,572
303,578
301,582
294,568
306,582
296,575
303,577
302,583
293,570
305,583
295,573
303,578
301,582
294,569
305,582
296,574
303,578
302,583
295,570
305,583
297,575
303,577
303,581
295,570
304,581
297,576
302,575
302,582
294,570
306,582
297,577
301,576
303,583
293,569
306,583
296,575
301,576
304,582
293,571
305,583
297,576
302,575
304,583
294,571
305,584
305,584
297,577
301,575
302,585
293,569
305,582
296,575
301,576
303,582
294,570
304,581
296,576
301,574
303,582
294,571
304,582
297,577
299,573
304,585
293,569
306,583
298,579
301,575
303,583
294,571
306,582
298,579
299,574
304,584
293,569
306,581
297,579
302,576
305,585
294,570
306,582
297,578
301,576
304,583
295,572
305,582
298,579
299,574
304,583
293,570
305,581
299,579
299,573
305,583
305,583
293,570
305,581
298,579
300,574
305,582
294,570
303,581
300,578
301,573
305,583
295,572
304,579
299,579
300,572
305,584
295,573
304,580
300,579
298,571
304,582
293,571
307,580
301,579
298,573
306,584
296,571
304,581
300,580
300,572
304,582
295,573
302,579
302,580
297,570
305,584
295,573
303,579
300,579
297,570
305,583
294,573
304,580
302,581
296,570
305,584
293,571
304,579
301,579
297,571
306,584
293,573
304,581
301,578
297,571
305,582
295,574
304,579
301,580
297,571
297,571
304,583
294,574
303,578
302,581
295,569
306,583
295,574
304,580
301,581
296,571
304,583
295,575
304,579
301,582
295,570
304,582
295,574
304,578
301,580
295,570
304,583
297,574
302,578
303,582
295,569
305,584
295,572
303,578
302,579
294,569
304,583
295,574
303,578
301,581
295,570
304,582
297,574
302,576
302,583
294,568
306,581
295,574
303,575
302,582
294,571
303,581
296,575
301,576
301,576
302,581
294,569
306,582
297,576
302,576
304,584
293,568
306,583
296,576
304,576
305,587
294,570
310,588
297,578
306,581
308,588
295,571
311,591
299,581
308,582
310,594
295,572
315,597
305,588
315,592
319,604
307,590
327,609
317,604
325,605
331,618
317,600
340,621
326,613
334,611
341,624
323,601
345,624
331,615
336,610
343,623
322,600
342,619
328,610
333,605
339,619
319,595
339,617
323,607
330,603
341,620
320,598
342,618
330,612
332,604
331,609
311,587
330,604
315,597
315,597
318,589
332,608
327,600
362,633
339,618
334,605
401,684
479,778
478,772
381,664
340,610
355,632
367,649
426,711
409,703
374,649
373,656
365,647
407,690
401,690
386,665
389,675
374,660
410,693
408,700
400,681
407,698
385,674
410,696
403,698
399,682
412,707
394,691
421,717
416,720
414,707
420,725
396,698
415,714
405,711
398,694
409,713
384,689
400,699
386,691
375,668
388,686
388,686
362,662
380,672
371,670
360,647
376,669
354,644
377,660
376,665
363,642
380,663
355,641
377,658
373,663
361,638
376,661
354,641
375,654
373,662
363,643
383,670
358,648
372,655
369,658
357,639
376,664
354,642
370,651
366,654
353,634
374,659
351,638
361,640
355,643
344,623
367,648
340,624
353,629
349,636
338,618
363,648
344,630
356,632
356,642
340,619
363,646
340,624
353,629
353,637
336,618
361,646
341,628
351,628
341,628
323,605
338,620
316,598
327,601
330,613
330,613
314,592
337,616
317,600
329,604
340,623
342,617
386,669
382,668
395,672
429,715
485,770
560,855
527,824
491,779
474,763
453,740
457,745
387,676
336,610
322,600
303,578
325,605
307,592
314,588
317,602
297,577
320,601
302,592
311,587
317,601
296,575
321,601
304,592
312,587
318,601
296,576
321,600
304,592
311,585
318,601
296,576
321,602
304,591
309,585
317,601
296,575
321,600
307,592
307,592
310,584
319,602
297,579
322,599
310,584
319,602
297,578
320,599
308,593
307,581
307,581
318,602
296,577
321,599
309,594
309,581
319,602
297,577
321,600
308,592
309,580
320,601
297,578
321,598
310,595
307,579
320,603
296,578
320,600
310,594
306,579
319,603
295,580
320,599
308,595
305,578
319,602
296,579
318,596
309,596
304,578
320,604
298,582
320,596
312,596
302,576
320,602
296,581
320,597
310,599
302,577
321,604
296,581
319,597
311,596
301,578
301,578
321,603
299,582
319,597
312,597
301,578
319,603
299,584
317,594
312,597
300,576
321,602
300,584
318,593
312,598
300,577
320,601
299,583
317,594
314,599
299,577
321,603
300,584
317,593
315,598
299,576
322,602
301,585
316,592
314,600
297,576
321,604
301,585
317,590
314,600
298,576
321,604
301,585
316,592
314,599
299,576
320,602
301,585
315,591
315,600
297,578
321,602
301,585
301,585
314,591
297,576
323,604
302,588
314,590
316,602
296,576
322,603
302,587
302,587
313,589
316,601
297,577
321,603
303,589
313,590
318,601
297,576
321,601
303,589
312,588
318,600
297,577
321,602
304,590
312,588
318,601
297,578
321,602
305,592
312,589
318,601
296,577
320,600
304,592
311,586
319,601
297,577
322,603
305,592
310,586
319,602
295,576
321,601
305,591
312,587
318,601
297,578
322,601
306,593
310,585
319,602
295,576
322,602
308,593
310,584
318,603
296,577
320,601
308,593
308,593
310,585
319,602
297,578
321,600
308,593
309,584
319,602
298,579
321,599
308,594
308,582
319,603
297,579
321,600
309,594
309,584
319,602
296,579
320,598
308,594
308,582
319,602
296,580
319,598
310,594
307,580
320,602
297,579
320,598
310,594
306,580
318,602
297,579
320,598
310,595
306,580
320,602
298,581
320,599
312,597
303,579
320,602
297,581
319,598
310,596
303,578
320,602
296,582
320,597
312,597
303,576
321,603
297,582
319,598
310,596
301,576
320,602
299,581
299,581
319,597
312,597
300,576
320,602
299,582
318,596
311,598
300,577
320,602
300,583
319,595
313,597
300,577
319,602
300,583
318,594
312,598
301,577
320,603
299,583
318,595
313,597
299,577
319,602
300,585
318,595
314,600
299,578
321,603
300,585
316,591
314,599
299,577
322,603
300,583
317,591
315,599
298,577
322,602
302,586
315,590
315,601
297,576
321,602
300,586
316,591
316,591
315,601
298,577
320,602
301,585
315,591
316,601
297,577
321,603
303,587
314,590
316,602
296,576
321,603
302,589
312,590
317,601
297,577
319,603
302,589
312,589
317,602
296,576
322,603
303,589
313,589
318,603
298,576
321,603
303,589
311,588
317,602
297,577
322,602
302,591
312,590
317,601
298,576
321,602
305,591
313,589
318,602
295,577
320,602
303,590
312,587
317,601
297,577
321,601
306,593
311,588
318,602
297,578
321,601
306,593
308,585
319,603
296,576
321,601
307,593
311,587
319,601
296,579
296,579
308,593
309,584
309,584
319,602
298,578
323,600
308,594
308,583
318,602
296,577
322,600
308,595
310,585
319,603
295,578
322,600
308,592
310,583
318,602
297,579
321,599
309,593
308,582
320,602
297,580
321,599
309,594
308,580
318,601
295,579
319,599
309,594
307,582
318,602
296,579
319,599
310,594
307,581
319,603
298,580
320,597
311,595
306,578
321,604
296,581
320,598
311,595
304,580
304,580
320,603
297,579
320,598
310,595
304,579
319,604
297,582
320,598
310,595
303,578
319,602
297,582
320,598
311,595
302,577
319,603
298,583
319,596
311,598
301,577
321,603
299,581
318,595
312,598
302,577
320,603
299,583
319,596
313,598
301,577
321,601
301,584
318,595
313,600
299,576
322,603
298,583
318,593
312,598
299,577
321,603
300,583
319,595
315,598
299,576
322,604
301,584
318,593
314,599
300,577
320,602
302,585
316,592
315,600
298,575
322,603
302,585
315,592
314,600
314,600
297,575
301,585
301,585
315,591
314,599
298,577
320,602
301,584
315,590
315,601
298,577
321,603
302,587
315,589
317,601
298,578
322,603
301,589
313,589
317,603
297,576
320,602
303,587
313,590
317,601
297,577
320,601
304,589
312,588
318,602
297,577
321,602
304,590
313,590
316,600
297,577
320,601
303,590
312,590
319,600
296,576
321,602
304,591
312,588
318,602
295,577
323,602
304,592
312,588
318,603
297,577
297,577
322,602
305,591
310,588
318,600
298,578
321,601
305,591
310,587
319,601
298,578
320,601
306,593
311,586
319,602
295,576
322,601
307,593
310,585
319,603
297,578
321,600
307,593
309,584
319,603
296,577
322,600
307,594
307,582
319,602
297,580
321,600
310,595
309,580
319,602
296,579
320,598
309,594
308,581
319,603
297,580
321,600
310,594
307,580
320,604
296,579
321,599
310,595
305,580
320,602
298,580
321,599
309,595
305,580
320,601
296,581
318,599
318,599
311,596
305,578
318,602
297,583
320,598
311,597
304,578
320,604
298,582
319,597
311,598
302,578
320,603
298,582
318,597
312,597
302,578
320,603
299,581
318,596
312,597
301,577
319,603
299,583
319,595
312,598
302,578
320,602
300,584
317,594
314,598
300,578
321,601
300,583
318,595
313,597
299,577
319,601
300,583
318,594
313,598
299,576
320,603
300,586
319,592
313,600
298,576
320,602
320,602
300,585
317,591
315,600
296,576
321,601
302,586
315,592
315,601
297,576
322,603
300,585
314,590
317,601
297,575
321,602
302,587
314,590
316,601
296,574
321,602
302,587
315,589
317,600
297,577
321,604
302,587
312,590
316,601
297,576
322,603
303,590
313,588
318,602
296,577
321,603
303,590
311,588
316,601
296,577
321,602
304,591
312,589
321,605
305,585
329,613
318,609
329,612
338,629
318,606
334,621
316,607
322,599
326,612
301,583
325,606
308,596
312,587
312,587
321,603
298,579
322,602
308,592
311,587
319,603
298,579
321,599
308,595
310,584
318,601
298,578
320,599
308,594
310,583
319,602
298,579
321,600
309,595
308,580
320,603
297,579
321,599
310,595
308,581
320,605
296,580
322,599
311,596
307,580
320,603
297,581
321,599
312,594
305,579
320,603
298,581
321,598
311,596
304,580
320,601
298,581
320,598
312,598
305,579
321,603
298,584
319,596
319,596
312,598
301,577
320,602
299,582
320,597
312,597
302,578
320,603
299,583
313,599
313,599
300,577
321,604
299,584
319,595
314,601
300,578
321,604
301,584
317,594
314,599
300,577
322,605
300,583
317,593
315,600
299,577
322,606
300,584
318,593
314,600
299,576
321,603
301,585
315,592
317,602
298,577
322,603
302,588
314,590
317,600
298,578
322,603
302,588
315,590
317,603
296,576
321,603
302,588
314,592
318,602
296,577
323,604
301,588
313,589
318,602
296,578
322,604
303,591
303,591
314,591
317,601
297,575
321,602
304,592
312,588
319,602
298,578
321,601
305,593
311,588
318,602
298,578
322,602
306,594
311,586
320,603
297,577
322,601
307,594
311,585
320,604
296,578
322,601
309,595
310,585
320,603
297,577
321,599
309,594
310,583
320,604
297,578
323,601
308,595
308,581
319,602
298,580
321,600
311,596
308,580
320,602
298,579
322,599
311,596
307,582
307,582
321,604
297,580
322,599
310,597
304,579
298,581
320,599
311,596
305,580
319,602
299,582
299,582
318,596
311,596
303,579
319,600
299,583
316,595
311,596
301,576
318,599
299,583
315,592
310,593
301,575
317,597
298,581
313,590
309,591
299,576
315,593
299,579
312,585
309,590
298,575
313,592
300,580
309,583
308,588
299,575
311,590
299,581
307,580
308,589
297,573
311,588
299,579
307,582
309,590
297,574
312,591
300,581
306,580
308,590
297,573
311,590
302,583
307,581
310,592
310,592
297,574
312,590
300,582
307,581
309,590
297,574
313,590
302,584
306,581
310,590
297,575
313,591
301,584
305,582
311,591
297,575
314,591
302,584
306,581
311,590
298,576
312,591
302,584
305,580
311,591
297,576
313,588
305,586
305,580
312,591
298,577
312,588
305,587
303,579
312,590
298,576
313,589
305,587
304,577
312,592
297,575
311,589
305,587
303,576
312,590
297,577
311,588
306,587
303,576
313,591
298,577
311,589
307,588
302,575
312,592
299,578
311,587
306,588
301,577
312,590
312,590
299,578
310,587
305,588
300,576
311,592
299,580
311,586
307,590
299,575
312,592
299,580
310,585
307,588
300,574
311,591
299,579
311,586
307,588
299,576
312,591
300,580
308,583
309,589
298,575
313,591
300,580
310,585
308,589
298,576
311,590
301,582
311,583
308,589
298,576
312,591
300,582
307,582
310,592
298,574
311,591
302,580
308,583
309,592
297,574
313,592
301,582
308,581
308,581
310,591
297,574
312,592
301,581
307,582
309,589
298,575
311,590
302,583
306,582
310,591
296,573
314,590
303,585
306,581
311,593
297,576
310,589
302,583
306,581
311,591
298,577
312,589
303,586
304,579
312,590
297,574
312,589
304,585
306,580
311,591
298,576
312,588
304,586
304,580
312,590
297,576
311,588
305,587
304,578
311,592
297,576
311,587
305,586
304,578
311,591
299,577
311,587
306,586
304,577
311,591
296,576
312,587
305,585
302,576
311,591
299,577
311,587
305,586
305,586
303,577
312,591
297,578
311,587
306,588
302,575
313,591
298,579
310,586
307,587
301,576
313,591
297,578
312,586
307,589
299,574
311,591
299,579
311,586
307,590
300,575
312,592
298,578
310,588
306,588
300,574
311,591
299,580
310,586
307,589
299,575
310,591
300,581
309,585
307,590
299,574
312,590
300,580
309,584
309,590
299,574
313,592
300,581
309,582
308,590
298,574
312,591
301,582
309,583
309,583
310,591
297,574
313,591
300,581
309,583
310,591
298,574
312,592
301,582
306,581
310,591
299,575
312,590
300,583
306,582
309,591
298,575
312,591
302,584
307,581
310,592
297,576
312,590
301,583
306,582
311,590
298,575
311,590
303,586
305,580
311,591
297,574
313,590
303,584
307,581
311,589
297,576
311,590
303,585
305,581
311,592
296,575
313,589
303,586
306,579
310,592
298,576
313,590
304,585
306,581
311,591
299,576
311,588
306,587
305,578
311,593
296,574
313,589
304,586
304,586
304,578
312,591
298,577
312,589
306,587
303,577
312,591
297,577
311,588
306,587
303,577
311,592
297,578
312,589
306,587
304,578
311,592
298,578
311,586
306,587
301,577
314,591
297,578
312,588
306,587
302,576
311,591
299,579
311,587
308,590
302,576
313,593
298,579
311,588
307,587
301,577
311,591
299,579
310,587
307,589
301,575
313,592
298,579
310,588
306,589
301,575
301,575
312,592
299,580
309,587
308,588
300,574
312,592
299,580
311,586
307,590
300,575
312,590
300,581
310,585
309,589
298,574
312,591
300,582
309,584
309,591
298,574
312,591
301,580
310,583
310,591
298,574
314,592
301,581
310,584
309,590
298,574
311,590
300,582
309,584
309,592
299,574
313,591
302,583
306,582
310,591
297,574
313,590
302,583
307,582
310,591
297,575
312,591
302,584
305,580
309,591
296,574
312,589
302,582
306,581
309,591
295,573
313,589
300,581
307,580
309,589
298,574
309,587
301,583
301,583
305,580
309,589
298,576
312,589
302,585
305,580
312,591
298,575
315,592
305,588
307,582
314,595
299,577
316,595
306,589
308,583
316,596
297,577
317,595
305,590
309,583
315,599
298,579
316,595
307,591
308,582
316,599
298,578
318,597
308,592
308,581
316,599
297,577
316,593
307,591
307,580
317,600
298,580
320,598
310,594
307,582
319,602
297,581
320,599
310,595
308,581
319,604
297,582
320,599
312,598
306,583
319,604
299,583
318,598
311,596
311,596
305,580
297,583
297,583
316,595
310,597
302,578
317,599
298,582
316,594
302,577
317,600
299,583
299,583
316,593
311,596
301,576
318,599
299,583
315,592
311,595
301,576
317,598
298,583
313,589
311,595
299,575
316,597
300,582
313,588
312,595
298,575
318,598
302,584
314,591
313,598
300,577
320,601
304,587
319,592
316,602
303,582
323,604
306,589
318,593
318,602
304,581
322,604
306,590
316,591
318,600
300,578
319,600
301,585
313,588
313,596
297,575
317,598
301,585
310,586
314,596
314,596
297,576
318,596
301,585
309,585
313,597
297,576
318,597
303,587
309,586
314,596
298,577
318,597
304,589
308,584
315,596
297,576
317,596
303,589
310,585
317,597
297,577
317,597
304,590
308,583
316,598
297,577
316,597
305,590
308,583
315,598
298,578
319,597
308,592
308,583
315,598
297,577
317,597
306,592
307,582
317,599
297,579
318,596
307,592
307,583
315,599
297,580
316,595
308,593
308,593
307,581
298,581
320,600
308,596
307,582
318,600
297,581
316,595
310,593
303,578
316,596
297,579
297,579
312,589
307,590
300,575
311,591
297,577
309,586
305,587
300,572
311,590
296,577
310,585
307,588
299,576
312,592
297,578
311,588
308,590
298,573
313,591
298,581
312,588
308,589
299,576
312,593
299,581
310,586
308,590
298,574
313,591
299,579
310,585
308,590
298,573
313,591
298,579
308,583
308,589
297,574
311,590
300,581
308,583
307,589
298,574
311,589
300,581
306,581
307,589
307,589
297,575
311,589
300,581
306,580
308,589
296,574
311,588
299,582
306,581
309,590
297,574
311,590
299,583
305,581
309,590
297,575
311,589
301,583
305,580
310,592
297,575
311,590
300,583
304,580
310,590
297,576
311,589
302,583
304,582
309,589
297,576
310,587
304,584
304,581
310,590
296,575
311,587
302,584
304,578
309,589
297,576
311,588
303,584
304,579
309,588
296,575
308,587
304,585
304,579
310,590
297,577
310,587
305,585
302,578
309,590
296,576
309,587
303,586
302,577
310,589
299,577
309,586
303,587
303,587
302,578
308,590
298,577
308,586
305,587
300,576
309,591
297,578
308,585
305,587
301,576
310,591
297,578
308,585
304,587
299,577
310,590
298,580
308,586
305,588
300,577
309,589
299,579
308,584
307,588
297,575
310,588
302,581
307,583
307,590
298,576
310,589
298,580
307,583
309,590
298,576
310,589
299,579
299,579
306,582
308,589
298,575
309,589
301,582
306,581
308,589
297,576
311,589
301,583
306,582
308,591
297,575
308,589
300,583
304,582
307,590
298,576
311,589
301,584
304,580
309,590
298,576
310,590
301,583
305,581
308,589
297,576
308,588
301,584
304,580
309,588
299,577
310,589
301,585
303,581
309,591
295,574
310,588
303,586
303,579
309,590
297,575
310,588
302,585
303,579
303,579
309,590
298,576
311,588
304,585
302,578
310,589
297,577
309,588
306,587
302,579
310,590
298,577
309,586
302,586
302,576
309,590
298,578
309,587
306,588
302,577
308,588
298,577
308,585
305,587
302,577
310,589
297,580
309,586
304,588
299,575
309,589
297,578
309,585
305,587
299,575
308,589
298,579
308,586
305,586
300,575
309,590
298,578
308,584
306,588
298,574
309,590
298,579
309,584
307,588
300,575
309,588
299,581
306,583
306,587
297,574
310,589
299,581
308,583
309,588
309,588
298,575
310,590
299,580
308,583
306,589
297,574
310,588
301,582
308,584
307,589
298,575
309,588
299,582
307,583
306,589
299,576
309,588
301,581
304,581
309,589
298,576
310,588
300,582
305,580
308,589
298,575
311,589
301,583
306,582
308,589
298,577
309,587
301,583
305,581
308,590
297,575
308,588
301,584
303,580
309,590
296,576
311,588
301,584
304,580
309,589
297,576
310,589
301,585
301,585
304,580
307,589
298,576
310,588
304,585
304,580
309,590
298,579
310,587
303,586
302,579
310,589
296,577
309,587
303,585
302,578
309,589
298,577
310,588
304,585
302,578
310,590
295,577
309,585
305,586
303,577
310,589
297,578
309,587
304,586
302,576
309,590
298,578
308,586
305,587
303,576
309,590
298,578
308,586
305,587
301,576
309,589
297,578
307,585
306,586
299,576
310,589
299,580
308,585
306,589
300,576
309,588
299,580
308,586
306,588
299,575
310,588
299,581
307,584
307,584
306,589
298,576
310,589
299,579
309,585
306,587
299,576
310,588
299,580
308,584
306,588
299,577
310,589
300,581
306,583
308,588
299,575
309,589
300,581
307,582
306,589
298,576
309,589
300,581
308,583
306,588
297,576
311,591
300,581
305,580
307,590
298,574
309,589
301,582
306,583
307,587
297,576
309,589
300,582
304,581
308,590
297,575
310,590
301,582
306,582
308,588
298,575
309,588
309,588
303,584
305,582
309,590
297,575
310,588
302,585
303,581
309,589
297,576
311,588
302,585
305,581
309,590
296,575
310,588
302,584
305,581
310,591
296,575
310,588
303,585
304,579
309,589
297,576
311,587
303,585
303,578
309,590
297,577
308,586
304,585
301,577
310,588
297,575
310,586
303,585
303,579
310,589
296,577
309,587
304,584
303,577
308,589
298,576
309,585
304,584
301,576
309,587
297,578
309,585
305,586
302,575
309,589
298,577
308,585
305,586
302,574
310,587
297,577
297,577
307,585
305,585
299,574
310,589
296,577
308,584
305,586
299,574
309,588
298,577
307,584
305,585
300,575
308,589
298,578
308,583
306,585
299,575
310,589
297,577
307,583
306,587
299,575
309,589
298,579
308,583
304,587
299,575
309,588
299,580
307,581
306,587
297,571
310,588
299,578
306,581
308,588
298,573
311,587
300,580
306,581
308,587
296,573
310,588
300,580
307,579
307,586
297,573
297,573
310,588
300,582
306,580
308,589
296,573
310,588
300,580
306,580
307,587
298,574
309,587
301,582
305,580
307,587
297,574
310,588
302,583
305,579
308,589
296,574
309,587
301,582
305,579
309,588
296,574
310,588
300,583
305,580
309,587
297,574
310,587
302,584
304,580
307,588
297,574
309,586
303,584
304,578
309,588
297,576
310,588
303,585
302,577
310,590
296,574
309,586
303,585
303,578
310,589
297,575
310,586
304,584
302,577
309,588
298,576
309,586
304,586
301,575
309,588
309,588
297,576
310,585
304,586
302,575
310,589
297,577
310,585
305,585
299,575
310,590
297,578
307,586
305,586
301,575
310,588
298,578
308,585
305,588
300,573
310,589
297,577
308,584
305,586
299,575
309,589
298,580
307,583
307,587
298,574
310,588
299,580
308,584
307,589
299,575
311,590
298,579
309,584
306,587
297,573
310,588
299,580
307,583
307,588
298,575
310,589
310,589
300,581
306,582
306,587
297,573
310,589
300,581
307,582
309,589
298,574
310,588
300,582
305,581
307,588
298,575
310,588
302,582
305,581
308,590
298,576
309,588
301,583
303,580
309,588
297,575
309,590
301,583
304,579
309,588
296,574
310,587
301,585
304,580
309,590
297,575
310,589
301,584
304,579
307,589
297,575
309,588
303,586
304,579
310,590
298,576
309,587
304,586
302,577
309,590
297,575
310,585
304,585
302,577
309,588
297,576
310,587
303,585
304,578
309,588
297,577
297,577
308,587
305,586
302,576
309,589
297,578
308,585
305,586
301,577
309,590
298,577
307,585
305,586
302,575
310,588
297,578
308,586
306,586
300,574
310,589
297,578
309,584
306,587
299,575
309,589
299,579
308,585
306,586
298,574
310,590
297,579
308,584
305,586
299,575
310,589
299,580
308,584
307,588
298,576
310,590
297,578
308,583
307,586
298,574
310,590
300,580
308,584
306,588
297,574
297,574
309,588
300,580
306,581
307,588
298,575
301,581
306,581
308,589
296,575
310,588
310,588
300,579
305,581
309,588
298,576
310,588
301,582
306,580
309,590
297,573
309,589
301,582
304,579
308,589
296,574
310,589
302,583
304,582
308,589
297,576
309,587
302,583
304,579
310,589
297,577
309,587
302,583
303,580
309,588
298,576
309,587
303,584
303,579
310,589
297,574
309,589
302,584
305,578
308,588
298,576
310,588
304,585
303,579
309,589
297,575
308,586
302,584
302,578
302,578
310,590
296,577
309,586
305,586
301,576
311,590
297,576
309,585
304,586
302,576
310,589
296,578
309,586
304,584
301,577
309,588
297,577
308,585
306,586
302,576
309,589
298,579
308,584
305,587
299,574
309,588
297,579
308,584
306,589
301,576
309,588
299,578
307,583
307,587
299,576
310,589
299,579
308,584
306,587
298,575
310,590
299,579
307,583
307,588
298,575
309,589
300,579
307,584
306,588
297,573
309,588
300,580
307,582
307,588
295,574
310,588
300,580
306,581
307,588
298,574
311,588
301,582
301,582
306,582
307,589
297,574
310,589
299,581
306,579
307,588
298,575
310,588
300,583
305,583
307,589
297,575
309,588
301,583
304,579
308,590
297,575
310,589
300,582
304,579
309,589
297,574
309,589
301,583
305,580
308,589
297,576
311,588
302,584
304,580
309,590
297,575
310,588
301,584
303,580
309,588
297,576
309,587
303,584
303,579
310,588
297,575
308,586
303,585
303,578
303,578
310,590
298,576
310,588
304,586
303,578
310,588
298,577
308,585
304,585
302,576
309,589
298,577
308,585
304,587
302,578
308,589
298,576
308,585
305,586
301,576
308,589
297,576
307,585
305,587
300,576
310,588
299,579
309,585
305,587
299,575
310,589
297,579
309,585
305,587
300,576
311,590
298,578
308,585
306,587
300,576
309,589
300,580
308,584
305,587
297,575
309,588
299,580
307,583
306,587
298,574
310,589
299,581
307,583
307,589
297,574
310,590
297,580
307,583
307,583
306,588
298,574
311,588
301,581
306,582
308,590
297,574
312,589
299,581
306,582
309,588
297,575
310,588
301,582
304,581
307,587
297,576
310,588
301,582
305,581
309,589
296,574
310,588
299,582
304,580
309,589
296,575
311,589
301,582
305,581
308,588
297,575
309,587
301,585
303,579
309,589
295,574
309,588
303,584
303,580
308,589
297,575
311,587
303,586
304,580
309,590
296,575
309,585
303,585
303,585
304,580
309,589
298,578
309,586
304,586
303,577
309,590
296,576
309,586
304,586
302,577
309,591
297,576
308,585
304,586
304,576
309,589
297,577
310,586
305,586
303,577
308,589
298,577
308,587
305,585
302,577
310,589
299,578
309,587
304,587
301,576
309,588
297,578
307,584
305,587
300,575
310,589
297,578
308,585
305,588
300,576
310,589
298,579
309,585
306,588
298,574
310,589
298,578
307,583
305,587
299,574
310,589
298,579
308,584
307,588
299,575
308,589
299,581
299,581
306,582
307,587
298,574
310,590
299,580
306,582
308,588
297,574
309,588
299,581
307,582
308,589
296,575
308,588
300,581
306,582
307,589
297,575
309,589
301,581
307,583
306,588
297,575
309,589
301,581
305,581
308,589
298,575
310,589
302,583
304,579
309,588
296,575
310,589
302,583
306,582
308,589
298,575
309,587
301,584
303,581
308,590
297,575
310,587
301,585
304,581
309,589
297,576
297,576
309,587
302,584
303,581
308,589
298,576
309,588
302,584
303,578
308,589
296,576
311,587
302,584
305,579
308,588
297,575
309,588
305,586
301,577
310,589
297,577
310,586
304,587
303,578
310,590
297,576
309,587
303,585
303,577
309,588
298,579
309,586
304,586
302,576
310,590
297,578
310,588
304,585
302,577
309,589
298,578
307,586
306,587
301,577
309,589
299,578
309,585
306,587
300,575
311,590
299,580
308,584
306,588
299,574
310,589
298,578
308,584
307,588
307,588
298,576
309,588
299,580
306,583
306,587
299,576
310,589
299,581
308,583
305,588
299,575
309,588
299,581
308,583
307,588
298,575
309,587
301,580
306,581
308,588
298,575
309,588
300,581
307,583
307,588
298,574
310,588
300,580
304,582
308,589
298,575
309,589
301,583
304,581
308,590
296,574
310,587
300,581
306,581
308,590
297,575
311,589
301,582
305,581
308,589
297,575
309,589
302,584
302,584
305,580
309,589
298,575
309,587
303,584
303,580
310,589
297,576
312,588
304,585
304,580
311,591
297,575
311,589
303,585
304,579
311,591
297,576
311,588
304,586
304,578
311,591
296,577
311,588
306,587
304,578
313,594
298,577
313,592
306,589
306,578
315,596
298,578
317,593
308,593
306,578
317,600
297,581
319,597
309,596
305,582
318,601
297,581
320,597
311,595
305,579
319,603
298,582
321,599
311,597
304,578
320,603
297,583
319,596
313,598
303,578
322,604
297,582
320,597
320,597
312,597
302,577
320,603
299,583
318,595
314,598
302,577
320,603
300,583
317,594
313,598
300,577
321,603
301,586
317,593
315,599
298,576
322,602
301,586
317,593
315,599
297,575
323,604
300,585
316,592
315,600
298,576
322,603
303,586
316,592
315,601
298,578
322,603
302,587
313,590
317,601
297,577
322,604
303,588
314,591
318,603
296,576
322,603
303,589
313,589
318,602
318,602
297,577
321,603
303,591
312,588
321,602
297,575
324,603
303,591
313,587
319,603
298,577
323,604
304,592
313,587
319,604
297,577
322,603
305,591
311,586
320,602
296,577
323,603
307,594
310,587
321,603
296,577
323,600
308,594
311,584
320,604
297,578
323,602
309,593
310,584
318,603
296,577
322,601
309,596
310,583
319,603
297,579
320,598
310,594
309,582
321,602
298,580
322,599
310,595
307,580
321,604
298,579
322,599
311,597
304,578
320,603
297,581
321,598
311,598
305,577
321,605
321,605
298,580
320,599
312,597
304,579
321,604
298,583
319,597
311,597
303,578
321,604
299,583
321,598
312,598
302,577
322,604
300,583
319,596
312,599
302,578
320,603
301,584
318,595
314,599
300,577
322,604
301,584
319,595
312,599
300,578
321,603
302,584
317,593
316,599
299,578
323,604
302,587
316,592
315,600
298,577
321,604
301,586
316,591
317,601
298,578
322,604
302,587
315,590
317,602
317,602
297,576
323,603
302,587
315,590
314,602
298,576
323,605
302,589
314,590
298,578
322,604
322,604
303,591
312,589
318,602
298,578
321,603
304,591
313,589
319,603
297,577
323,604
303,591
313,587
319,605
297,576
324,604
304,593
312,589
318,602
297,577
323,602
307,593
311,587
320,603
296,577
322,601
308,594
310,586
320,603
296,578
323,601
310,595
310,584
319,604
296,577
323,601
309,594
310,583
320,603
298,579
321,600
310,594
309,582
321,604
298,579
322,599
311,597
311,597
307,581
320,603
297,579
322,599
310,597
307,581
321,604
296,579
320,599
311,596
306,581
319,603
297,582
320,598
312,597
304,580
321,603
299,583
320,598
311,598
304,577
322,603
299,581
320,598
312,597
304,578
320,603
299,583
320,597
313,598
303,578
320,604
297,583
320,596
314,599
301,577
322,604
299,584
318,596
313,598
300,579
320,604
302,584
317,593
314,599
300,578
322,604
301,585
301,585
317,592
314,600
300,577
301,586
317,593
314,599
299,577
324,605
300,586
317,592
317,592
315,601
299,576
321,603
301,585
315,592
316,601
299,578
322,603
302,588
314,589
317,602
298,578
323,603
302,587
315,590
317,602
297,576
324,604
302,590
314,589
317,601
296,577
323,604
305,591
312,588
319,601
297,577
324,602
304,591
313,588
320,604
296,577
323,604
305,591
312,587
319,603
298,577
323,603
306,593
312,587
319,603
298,579
321,602
308,592
311,585
321,603
297,579
322,601
309,594
309,594
311,585
319,604
296,578
321,599
309,594
310,584
321,604
298,580
322,600
309,595
310,582
321,604
297,579
321,599
309,596
307,581
320,604
297,581
321,601
312,595
306,580
320,603
297,582
321,599
312,597
305,579
322,604
297,582
320,598
313,598
303,578
322,604
297,582
319,598
312,597
304,578
322,603
298,583
320,597
312,597
301,577
320,603
298,583
320,597
314,600
300,577
322,604
299,583
318,595
314,600
300,578
322,605
301,585
320,594
314,601
300,577
323,604
302,587
302,587
318,593
314,601
298,575
323,604
301,585
318,593
315,602
298,577
322,604
301,585
316,592
317,600
298,577
322,603
301,587
315,592
317,602
299,577
322,604
303,589
314,590
316,601
298,576
323,604
303,589
313,590
316,602
296,576
323,604
304,592
313,589
318,602
297,576
323,605
302,591
313,588
318,602
297,578
322,601
305,591
311,587
319,602
297,576
323,603
306,593
312,586
312,586
319,603
298,578
322,601
308,593
312,587
319,602
298,578
322,600
308,593
310,584
320,602
297,578
322,602
309,594
310,583
320,603
298,578
322,600
311,594
309,582
321,604
297,580
322,601
310,596
307,582
320,604
297,580
321,599
311,596
304,580
320,603
297,582
322,598
313,598
305,579
321,604
295,581
320,597
311,597
304,578
320,604
299,583
320,598
312,597
302,578
322,602
299,584
319,597
315,599
301,577
322,605
298,583
318,595
313,600
301,578
322,605
300,584
319,595
314,600
314,600
298,577
322,603
300,585
319,594
316,600
299,575
322,605
301,584
317,592
314,600
298,577
322,604
303,586
316,592
317,601
297,575
322,604
302,587
315,591
316,603
297,577
322,604
301,588
313,589
318,601
297,576
324,604
304,589
314,591
318,603
296,577
323,604
303,591
313,589
318,601
297,578
324,603
304,591
312,589
320,603
297,577
322,603
305,593
312,587
319,604
298,579
321,603
307,594
307,594
313,587
320,602
298,578
322,601
309,593
310,583
320,603
297,579
322,600
311,595
309,583
320,603
296,580
322,601
310,596
309,583
321,604
298,579
322,601
310,595
306,582
320,603
297,580
322,599
312,597
305,580
321,604
299,583
320,599
311,596
304,579
321,603
299,582
320,599
313,598
302,578
322,605
299,582
318,596
313,598
301,577
321,603
299,583
319,597
314,599
301,578
323,604
301,585
319,594
315,599
300,578
322,606
302,586
319,593
315,600
300,576
300,576
321,604
301,584
318,592
316,601
299,575
322,603
301,586
318,592
315,602
298,578
321,602
302,585
316,592
316,601
299,578
322,603
303,586
314,591
317,604
297,575
322,603
303,589
314,591
319,603
298,578
322,605
302,590
313,590
317,602
298,577
322,603
304,593
313,590
319,603
298,578
323,603
306,591
312,588
319,604
297,579
322,602
305,593
311,587
320,603
296,577
324,602
308,593
311,587
319,602
299,578
299,578
324,602
308,593
310,585
318,603
297,577
323,601
309,594
308,584
321,603
296,578
323,601
311,595
307,581
320,605
298,579
322,601
310,595
309,583
319,603
298,581
320,599
312,596
306,580
322,603
297,581
322,599
312,596
305,579
321,602
297,581
321,598
313,598
303,577
321,603
297,581
321,598
312,599
304,577
322,605
298,582
321,598
312,598
302,577
322,604
299,584
320,596
314,601
301,577
322,604
300,583
320,596
314,600
301,577
322,604
299,583
318,593
314,600
299,578
322,604
301,586
319,593
319,593
314,601
298,576
323,604
300,584
317,591
315,601
298,577
322,605
302,585
318,593
314,599
298,576
323,604
303,587
317,592
317,601
298,578
324,604
303,589
314,590
317,601
297,576
323,603
304,589
314,592
318,604
296,576
322,605
303,588
314,589
318,603
297,577
322,603
304,591
313,591
318,603
297,578
322,603
304,592
312,588
319,603
297,577
323,603
305,592
312,588
320,603
320,603
297,578
322,601
306,592
311,587
321,603
297,578
325,603
307,595
312,586
321,604
296,578
323,602
307,594
312,586
319,602
296,577
324,601
309,594
310,583
319,603
297,579
322,601
309,595
309,584
320,603
298,578
321,600
310,594
309,583
320,602
297,580
322,600
310,596
309,581
321,602
298,580
320,599
312,596
306,579
322,604
297,581
321,600
311,598
306,579
322,604
298,581
321,599
313,598
305,578
321,605
297,581
321,599
312,599
304,577
322,603
299,581
321,598
321,598
311,598
302,578
321,603
300,582
319,596
314,600
300,577
321,604
300,583
319,596
314,599
301,577
322,604
299,583
319,595
314,600
300,577
322,605
300,584
317,592
314,600
298,577
321,604
301,585
318,592
315,600
299,576
320,603
302,586
318,591
316,602
298,577
322,605
301,586
316,590
317,601
298,576
323,604
303,588
315,591
317,602
296,577
323,605
303,589
314,590
318,602
297,576
322,605
322,605
304,589
314,590
318,602
297,575
322,604
304,591
313,588
318,601
298,576
322,604
305,591
313,589
316,603
298,577
323,603
305,591
312,588
319,602
297,579
323,603
306,593
313,587
317,602
297,577
323,602
307,594
311,585
318,602
297,578
322,601
308,594
310,585
320,603
297,578
322,601
310,596
309,582
321,603
296,578
321,600
310,596
308,583
321,605
297,579
321,601
311,596
307,580
320,604
298,580
321,598
311,597
307,581
320,604
299,582
319,598
311,598
303,579
303,579
321,602
298,582
321,598
312,598
303,579
322,604
300,583
320,598
313,598
304,579
321,604
300,584
319,596
312,599
302,578
321,603
299,582
320,596
313,599
301,578
321,603
300,584
319,595
314,600
299,578
323,605
299,585
317,594
314,599
300,577
322,604
301,584
319,593
315,600
299,578
321,603
301,586
317,593
316,602
297,576
322,605
301,585
316,591
316,601
298,576
322,604
302,586
302,586
316,592
317,601
298,577
322,603
302,588
314,590
317,603
296,577
323,603
303,589
313,590
319,602
297,577
323,605
303,589
313,589
319,603
297,578
324,604
303,589
313,588
319,603
297,577
323,604
305,592
312,587
319,604
296,577
323,602
306,592
312,588
320,603
297,578
324,604
307,593
311,586
320,604
296,577
323,601
307,594
310,585
320,602
297,578
321,600
309,595
309,581
320,602
296,578
322,601
310,595
310,581
321,604
296,579
321,599
310,596
308,581
321,604
296,579
321,600
321,600
311,594
307,579
320,604
298,582
321,599
311,595
306,580
320,605
297,581
321,599
312,598
304,579
321,603
297,583
320,598
312,598
302,577
321,604
299,582
320,598
312,597
302,577
322,604
299,584
318,596
313,598
300,578
322,604
300,583
319,596
314,600
301,578
320,603
300,584
317,593
315,599
299,577
322,604
301,584
319,594
314,598
299,576
321,604
302,585
317,593
316,600
316,600
299,579
321,603
302,585
315,591
315,600
298,576
322,604
316,589
316,602
297,577
321,603
321,603
303,587
313,590
318,602
297,577
321,605
304,589
313,590
318,603
297,577
321,604
305,590
313,590
319,603
296,577
322,604
303,591
313,587
319,601
299,576
323,604
305,592
312,588
320,602
297,579
323,603
305,591
312,588
319,603
297,577
324,602
306,592
312,588
319,602
297,578
323,601
308,593
310,586
320,602
297,578
320,600
308,593
310,585
320,603
297,579
323,601
310,594
310,594
310,583
319,604
298,579
320,600
310,595
308,583
320,603
297,580
320,598
310,596
308,580
321,604
297,579
321,600
312,596
307,580
320,604
296,580
320,598
312,596
304,578
319,603
299,582
320,599
312,597
304,579
320,603
298,582
319,597
313,597
303,577
322,605
297,582
318,596
313,598
302,577
321,604
300,584
320,596
312,599
301,577
321,603
301,584
319,594
315,598
301,577
320,604
301,585
317,593
316,599
300,577
321,604
300,584
318,592
314,600
300,576
322,604
301,584
317,590
315,602
298,576
322,603
322,603
301,585
317,591
316,601
298,576
323,604
302,586
316,592
316,600
298,578
320,603
303,587
315,590
317,602
297,576
322,603
303,588
313,589
317,601
297,576
322,603
303,590
314,589
320,602
296,576
323,603
303,591
313,590
317,603
297,578
322,603
304,592
311,588
320,601
296,577
323,601
306,592
312,587
320,603
295,577
322,601
305,593
311,586
320,603
298,578
322,602
308,594
310,584
310,584
321,603
296,577
322,600
309,593
309,582
319,603
298,578
323,600
310,595
310,583
321,604
296,579
322,599
310,595
308,581
320,603
297,579
322,599
309,595
307,580
319,602
297,580
320,598
311,595
305,579
320,603
297,581
321,599
310,597
304,579
319,604
298,581
321,599
312,597
304,578
321,603
299,581
319,597
312,596
302,579
322,602
299,583
319,597
312,598
302,578
322,604
300,583
320,597
312,597
301,578
320,603
299,583
318,594
315,599
301,577
321,603
301,583
301,583
319,595
314,599
300,577
321,603
300,584
317,593
314,600
301,578
320,603
301,585
318,592
315,602
299,577
322,603
301,586
317,591
316,602
298,577
323,604
303,586
316,591
316,601
298,576
322,603
301,587
316,591
317,602
298,578
322,603
303,588
313,591
319,603
297,577
322,603
302,589
313,588
319,603
297,577
323,603
305,592
313,588
320,603
295,576
323,603
304,591
312,588
319,603
297,575
322,602
322,602
305,592
312,589
320,602
296,577
323,602
307,593
311,587
318,602
298,578
323,602
308,595
311,585
320,603
297,579
323,602
308,593
310,583
321,603
298,578
321,601
311,594
311,582
320,604
297,580
321,600
310,595
308,581
320,603
298,581
321,600
311,595
308,581
320,603
297,580
320,599
312,597
305,579
322,604
299,581
321,599
313,597
304,579
321,604
298,581
321,599
312,598
303,578
320,603
299,583
318,596
313,597
301,577
322,604
300,583
318,595
313,599
301,576
320,602
320,602
301,584
319,595
314,598
301,577
321,602
301,584
319,592
314,601
298,576
321,604
301,586
317,593
315,601
297,577
321,602
301,585
318,593
314,600
299,577
322,604
302,586
316,592
317,601
299,577
323,603
302,587
316,590
317,602
297,578
322,604
302,587
315,590
317,602
298,577
324,604
303,588
315,591
317,601
298,578
321,602
302,588
312,590
318,601
298,577
322,603
304,592
304,592
313,589
319,600
298,578
321,602
304,591
312,588
320,602
298,578
322,603
305,592
313,588
319,601
297,577
322,602
306,594
313,587
319,603
298,578
322,600
307,593
310,586
319,601
297,578
321,600
309,595
310,583
319,602
296,579
323,601
310,594
311,582
321,603
297,579
322,601
309,594
308,581
320,604
296,579
321,599
310,595
308,580
320,604
297,579
322,600
310,595
307,580
320,604
298,580
321,600
311,596
305,579
320,603
298,582
321,599
312,598
304,579
321,603
298,583
319,596
313,596
303,580
322,602
299,582
319,596
312,596
301,578
322,604
299,584
299,584
319,596
313,600
301,577
320,602
300,583
319,594
314,600
300,577
322,604
301,584
317,593
314,599
298,576
321,604
301,585
318,592
316,601
299,577
321,604
302,585
317,592
316,601
298,575
322,603
300,585
317,593
317,602
300,577
323,604
302,587
315,590
317,601
298,576
322,604
302,586
315,592
318,602
298,577
321,604
302,588
316,590
318,603
297,577
322,605
303,590
314,590
319,604
319,604
297,576
323,604
303,589
313,589
318,602
298,577
324,605
304,591
313,587
319,604
297,575
323,603
304,592
313,589
318,603
297,577
323,603
306,593
311,587
320,604
296,577
322,603
306,594
311,586
320,603
296,577
324,603
308,595
311,586
319,602
297,577
323,601
309,595
311,585
319,603
297,579
321,600
309,594
310,582
319,602
295,578
323,601
310,596
309,583
318,602
297,580
321,600
310,593
308,581
320,602
298,581
322,601
310,595
307,581
320,603
298,580
322,600
311,596
311,596
306,581
320,604
299,582
320,598
311,596
303,579
321,604
299,583
321,599
312,598
303,578
321,604
298,582
320,598
311,597
304,578
322,602
298,582
319,596
313,599
303,578
321,604
300,584
317,595
314,598
300,577
322,603
300,584
320,596
313,600
302,578
320,603
301,584
319,594
315,600
300,578
321,605
302,585
319,594
314,600
300,577
322,602
301,584
317,592
315,601
299,578
299,578
322,603
300,586
318,592
315,601
299,576
323,604
303,586
316,592
316,601
299,577
321,604
302,588
316,591
315,600
297,577
322,602
302,586
314,592
317,601
298,576
323,605
304,589
315,590
316,600
297,577
323,605
303,590
314,590
318,602
298,576
323,603
303,590
313,589
318,602
297,576
322,604
304,591
313,590
320,602
298,578
321,602
304,593
313,588
319,602
298,578
322,602
304,592
311,587
319,602
296,577
323,602
307,593
312,588
320,604
296,577
323,602
307,594
310,586
321,603
321,603
297,578
322,602
309,594
312,583
319,603
297,577
321,601
310,593
310,584
319,602
297,579
322,600
308,594
310,583
321,603
298,580
322,599
310,596
308,582
319,601
296,578
322,599
312,597
308,580
320,604
296,580
321,598
310,595
307,580
320,604
298,579
321,599
312,597
306,579
320,604
297,581
321,599
311,595
305,578
321,603
298,581
320,599
312,597
304,581
320,603
299,582
320,599
312,597
312,597
303,579
320,602
298,584
319,598
313,598
321,604
298,582
319,597
319,597
314,599
300,577
321,604
299,583
320,595
314,599
300,577
321,604
300,583
320,598
312,598
301,577
321,604
299,585
319,596
313,599
300,578
321,603
301,585
320,594
315,600
300,578
321,604
302,585
317,592
313,600
299,575
322,603
301,584
318,593
315,601
300,579
323,604
301,586
319,592
316,601
297,577
322,603
302,587
312,598
302,578
321,603
298,582
319,598
313,598
303,579
322,606
299,583
320,598
312,598
303,576
322,604
300,583
320,596
314,598
301,578
320,604
300,585
318,596
318,596
314,598
301,577
322,603
300,584
318,594
315,600
300,578
322,605
302,585
318,593
315,600
300,577
322,604
302,586
317,592
315,601
299,576
322,606
301,584
318,592
315,600
298,576
322,604
301,586
317,592
316,601
299,578
321,603
302,587
316,591
317,602
297,576
323,605
302,588
314,590
317,602
298,577
323,604
303,590
314,591
318,602
297,577
323,604
304,591
313,590
319,604
297,578
323,604
323,604
304,590
313,590
318,602
298,576
323,603
306,592
313,589
319,603
298,578
322,602
305,593
313,589
320,602
297,576
324,602
306,592
312,588
318,603
297,578
323,602
306,593
313,588
318,602
298,577
323,602
308,594
311,586
319,603
297,578
323,602
309,594
310,584
320,604
297,578
323,601
310,594
310,583
320,605
297,580
322,599
311,595
309,582
320,605
298,581
321,599
310,595
310,581
321,604
297,581
322,600
311,595
307,580
321,605
297,581
321,600
311,597
306,579
320,604
320,604
299,582
322,599
312,599
305,579
322,604
297,581
321,599
311,597
303,579
321,605
299,584
321,598
311,597
303,577
321,603
299,583
319,597
314,600
302,578
321,605
298,582
321,596
313,599
303,577
321,603
300,585
320,597
313,598
302,577
322,604
301,584
320,596
315,600
302,577
323,604
301,586
319,594
315,600
299,577
322,605
300,585
318,593
316,600
299,579
322,605
301,586
319,595
316,602
316,602
300,577
321,602
302,585
317,592
316,600
298,578
322,604
302,586
316,591
317,602
299,577
322,604
302,587
315,591
317,601
297,575
323,603
303,588
315,591
318,602
297,575
322,605
302,587
315,590
317,603
298,577
322,604
302,589
313,590
319,602
298,578
322,603
305,590
312,589
319,602
298,578
322,603
305,593
313,588
320,604
296,578
323,604
303,592
312,589
318,603
297,577
324,604
306,593
312,589
320,603
297,577
322,603
305,592
311,589
318,603
298,577
323,603
308,593
312,588
312,588
318,602
297,577
322,601
309,595
310,585
319,602
298,579
323,603
309,595
310,584
321,604
296,580
322,601
309,596
310,583
321,604
298,579
324,602
309,595
310,583
321,604
298,580
323,602
310,595
309,582
321,604
297,580
323,599
311,597
308,582
321,605
297,580
321,599
313,597
306,580
322,604
297,581
321,599
311,596
306,580
321,604
298,582
321,600
311,597
305,579
321,603
299,582
299,582
312,597
312,597
304,578
321,603
299,583
321,598
312,597
304,579
320,603
299,583
320,597
313,598
304,579
321,603
299,583
319,596
313,598
301,579
322,603
301,584
320,595
314,600
301,577
322,605
300,585
320,595
313,599
299,577
322,604
301,584
317,593
315,601
299,577
323,605
300,586
318,593
314,600
299,577
323,604
302,585
318,594
314,600
298,578
321,603
302,585
318,592
315,601
299,579
321,603
302,586
316,592
317,601
299,578
322,605
303,587
316,591
315,600
299,577
299,577
321,604
302,587
313,591
316,602
298,577
319,600
303,586
312,589
312,597
298,577
317,598
302,587
309,585
313,597
297,577
314,594
303,588
307,582
313,593
297,576
314,592
301,584
306,581
310,591
297,575
312,591
303,586
306,582
312,591
297,576
312,590
304,587
304,580
312,592
298,576
312,591
304,587
306,582
311,592
297,577
314,591
306,588
306,581
313,593
298,577
315,592
306,589
306,581
313,596
313,596
296,577
315,592
306,589
304,580
313,595
297,576
315,593
307,590
305,580
315,597
297,577
316,593
307,589
307,580
314,596
298,579
313,592
308,591
305,580
314,598
298,580
312,591
307,590
303,579
313,594
299,581
311,590
307,590
301,578
311,593
297,579
311,588
306,589
301,577
312,592
298,580
310,588
306,588
301,576
310,591
299,581
308,587
305,590
300,577
309,590
298,580
308,587
306,589
299,576
310,592
298,580
308,584
305,589
300,576
310,591
298,582
307,586
305,588
298,576
298,576
309,590
300,582
307,587
307,588
299,577
309,592
299,581
308,587
306,589
298,577
308,589
299,583
307,583
308,590
298,576
310,592
299,582
307,584
306,589
298,577
309,592
301,583
307,585
309,591
298,578
310,592
300,585
307,585
309,592
298,577
311,592
302,585
308,586
309,594
297,577
311,593
302,585
307,585
310,594
298,578
313,593
302,586
306,585
310,594
298,578
312,593
302,587
306,583
306,583
310,595
297,577
312,593
301,587
306,585
298,578
313,593
303,588
305,585
305,585
311,595
297,578
312,593
301,587
305,583
310,595
296,576
312,593
303,587
305,585
311,593
298,579
311,592
302,588
306,584
311,593
297,579
313,593
304,589
305,583
311,593
297,578
311,590
305,589
305,583
311,595
297,578
312,592
304,589
304,581
311,593
297,580
313,592
304,589
305,581
310,593
298,580
311,591
306,590
304,581
312,594
298,581
310,590
308,590
303,580
311,593
298,579
310,591
310,591
305,590
303,580
313,594
297,581
311,591
306,590
302,580
312,593
298,580
311,590
307,591
303,580
310,594
299,582
310,589
306,591
301,579
312,594
298,583
310,589
308,592
301,580
312,594
300,581
310,589
307,592
301,578
312,593
298,583
309,589
306,592
300,578
311,594
298,582
311,589
309,593
299,578
310,593
299,583
309,588
307,590
299,578
312,593
300,584
310,588
308,594
308,594
299,577
299,583
309,588
307,590
299,577
310,592
300,584
309,587
308,592
298,577
312,594
299,583
299,583
309,587
307,592
299,579
312,594
301,584
308,588
308,592
298,579
311,593
301,584
307,585
308,593
298,579
310,592
301,584
307,584
308,593
299,579
312,593
301,585
306,584
309,594
299,579
310,592
300,585
308,585
309,594
298,576
312,593
300,585
307,585
308,593
296,578
311,593
302,585
307,585
309,594
298,579
311,592
302,586
306,585
309,591
298,578
311,592
302,586
308,585
308,585
310,593
298,578
311,592
303,587
306,584
310,592
298,580
310,591
303,587
306,583
310,592
298,579
310,593
303,589
305,582
311,594
299,579
311,592
304,589
304,583
310,594
296,578
311,591
303,589
305,583
311,594
298,579
311,592
304,589
305,583
310,593
297,579
311,590
305,589
305,581
310,594
298,581
310,589
306,590
303,581
311,593
298,580
310,590
305,590
303,580
312,595
298,581
311,591
306,589
305,580
311,594
298,580
311,590
306,591
303,580
310,592
297,580
310,590
307,591
302,579
302,579
311,595
298,581
309,590
305,590
302,579
310,594
299,582
310,591
305,590
302,578
312,593
297,582
308,590
307,592
300,578
312,594
297,582
309,588
306,591
300,578
311,593
298,583
310,589
306,591
300,578
311,594
298,582
309,587
307,591
300,579
311,593
299,583
308,589
306,590
299,578
310,592
299,582
308,587
308,592
299,578
310,593
300,584
307,585
307,591
298,577
311,593
300,584
307,587
308,593
308,593
298,579
311,593
300,583
308,585
308,592
298,577
312,593
301,585
307,585
308,592
299,577
311,593
300,585
307,586
307,591
298,578
311,593
300,585
307,586
308,592
297,578
311,592
301,584
305,585
310,593
298,579
310,591
303,586
306,583
310,594
298,579
311,592
303,588
304,583
310,593
298,578
311,593
301,587
305,584
310,594
297,578
312,592
303,588
306,584
311,595
296,579
311,593
303,587
306,582
310,593
299,579
311,592
304,589
306,583
311,594
296,579
311,593
303,588
303,583
303,583
311,594
298,580
313,592
305,590
304,582
311,593
297,581
310,590
306,589
303,580
310,592
298,580
311,592
304,589
303,581
311,594
298,581
310,590
305,590
303,581
310,594
299,581
309,590
306,590
302,579
311,594
299,582
309,589
307,592
301,579
311,595
297,581
310,589
305,590
301,580
310,593
298,583
309,588
307,590
301,578
312,593
300,583
309,588
307,592
301,578
312,593
300,585
308,587
308,587
308,592
298,579
311,593
300,584
309,589
308,593
298,578
312,594
300,584
308,586
307,592
299,578
310,592
300,583
308,585
308,592
297,578
313,594
301,584
309,586
309,595
297,578
311,593
301,585
308,588
308,593
299,579
311,592
302,585
306,586
309,592
298,579
311,592
301,586
307,587
309,593
298,579
312,593
301,584
305,586
310,594
298,578
311,592
301,587
305,584
310,594
298,579
311,593
302,588
307,586
311,594
298,578
311,593
302,587
305,584
310,593
298,579
311,592
311,592
303,589
305,583
311,593
299,579
311,594
304,589
305,583
310,596
297,579
311,592
304,589
305,585
310,595
298,580
311,593
305,589
305,585
311,594
299,580
311,591
306,590
304,582
311,594
297,580
312,592
306,590
305,581
312,595
298,581
312,593
305,589
305,582
311,595
298,580
312,592
307,590
305,581
312,596
298,582
311,592
307,592
304,580
314,596
297,580
312,592
306,590
303,579
303,579
312,595
299,582
312,592
308,591
303,580
312,595
299,581
311,590
307,592
302,579
312,595
300,585
309,588
307,592
301,578
312,595
300,583
310,588
308,593
300,577
311,594
299,583
308,587
308,591
300,578
310,591
300,582
308,587
306,590
299,578
311,592
301,584
307,586
307,591
298,576
311,591
299,582
308,584
307,591
299,577
310,592
301,584
305,582
307,591
298,576
310,590
299,584
307,583
308,590
298,576
309,591
302,583
306,583
307,589
298,578
309,590
300,583
306,583
306,583
307,588
298,577
309,589
300,583
305,583
307,589
298,577
309,588
301,585
304,581
309,590
299,578
309,589
302,586
304,581
308,589
297,577
310,589
302,586
306,582
308,590
297,577
310,588
303,586
304,582
310,590
297,576
309,588
301,584
302,580
310,589
298,579
308,586
304,585
303,579
309,589
298,578
309,587
304,586
303,579
309,590
297,577
309,587
303,585
304,579
308,588
297,579
309,588
309,588
304,585
301,578
310,589
298,579
309,588
305,587
303,577
309,589
298,579
309,587
304,588
302,578
310,589
300,579
309,586
306,588
300,578
309,590
299,579
307,585
305,588
301,576
308,590
298,580
308,586
306,589
298,577
310,591
299,582
306,585
306,589
299,577
309,590
300,582
308,585
307,591
299,577
310,591
299,580
309,584
306,589
299,577
311,590
300,581
307,584
307,589
298,577
311,592
299,582
307,584
307,590
297,576
309,589
301,583
307,583
308,590
308,590
298,578
309,591
301,583
305,582
308,590
297,577
309,590
301,583
306,583
308,592
298,577
309,590
301,584
305,581
307,590
298,577
310,589
300,583
303,581
309,590
298,578
308,588
301,585
304,581
309,590
297,577
308,589
300,585
303,580
308,589
298,578
308,588
302,584
304,580
307,589
297,577
309,588
302,585
304,581
309,589
298,578
308,588
301,585
303,580
308,590
297,578
308,587
303,585
302,579
302,579
310,589
298,579
308,587
303,587
301,579
306,590
296,577
308,587
303,586
302,579
308,590
297,580
308,587
305,586
302,578
308,590
299,581
308,587
304,587
300,579
309,590
298,581
306,585
305,587
301,579
309,590
299,580
308,586
306,589
300,577
308,590
299,580
308,587
305,588
301,578
308,589
299,581
307,585
306,588
301,578
310,590
299,582
306,585
306,588
300,577
309,590
300,581
307,584
309,590
299,577
310,591
299,581
307,583
306,589
298,577
310,591
300,583
300,583
308,586
307,588
299,578
308,589
300,582
307,583
308,591
298,576
309,590
299,582
306,584
306,589
298,577
309,590
302,585
304,583
307,591
298,577
308,589
299,585
306,583
307,590
298,578
308,589
301,584
305,582
308,590
297,578
309,589
302,585
304,583
308,592
297,577
309,589
303,586
304,582
306,591
298,577
309,590
301,585
304,582
307,590
299,578
308,588
302,586
304,583
309,590
298,579
298,579
307,587
302,586
304,583
307,590
298,578
308,587
303,581
307,588
298,578
309,588
304,586
303,581
309,589
309,589
297,580
306,586
304,588
302,580
308,589
298,580
308,586
305,586
302,578
308,590
297,578
308,586
304,587
300,579
309,590
298,580
307,588
303,587
301,579
307,591
297,579
306,587
304,586
302,577
308,588
299,580
306,586
305,587
301,578
307,589
299,582
306,584
306,588
300,577
308,589
299,582
307,585
305,590
299,576
309,588
298,580
307,585
306,587
299,577
309,589
298,581
308,585
308,585
305,587
299,576
307,588
300,582
306,583
307,588
298,577
307,587
301,581
305,582
306,588
296,578
307,588
300,582
305,581
305,587
298,577
308,589
299,581
305,582
305,587
298,577
308,588
300,583
305,583
307,588
298,579
306,586
301,583
304,582
307,589
298,579
306,587
302,583
303,580
306,588
298,577
308,587
302,584
302,582
307,590
297,578
308,589
301,583
303,580
308,588
297,577
309,588
301,585
303,580
307,589
298,578
306,587
302,586
304,581
306,588
298,578
307,587
303,587
303,587
303,580
310,588
299,579
309,586
304,587
303,580
308,588
297,577
308,586
304,585
302,580
306,590
299,579
307,585
304,587
302,579
309,589
297,580
309,586
306,588
302,577
308,590
298,580
306,586
305,587
300,577
308,588
299,580
307,586
305,590
299,577
309,590
299,580
307,585
306,589
300,577
308,589
299,581
305,585
306,588
300,578
307,589
298,582
306,584
306,587
298,578
307,588
307,588
300,581
305,585
306,589
298,579
309,589
301,582
306,583
306,588
298,578
307,588
301,583
305,581
306,588
299,579
309,588
302,584
305,582
308,590
297,577
308,589
301,584
303,581
307,588
298,579
307,588
301,584
303,582
307,589
298,578
308,589
302,585
303,581
308,590
297,577
308,587
301,585
304,581
309,589
298,578
308,587
301,587
303,582
308,590
297,576
308,587
303,586
304,581
307,591
297,577
309,587
303,587
303,581
309,590
299,580
309,587
304,587
301,579
301,579
309,589
297,578
308,587
305,587
302,580
309,591
297,579
308,588
304,588
302,578
309,589
297,580
308,587
306,588
301,578
309,590
299,580
308,587
307,590
300,578
309,589
298,580
309,586
306,588
299,578
309,589
300,582
308,586
307,589
299,577
310,591
298,581
308,585
304,588
300,578
309,590
300,582
307,586
305,589
299,578
309,591
300,583
307,584
307,591
298,577
309,591
299,582
307,583
307,583
305,589
299,578
309,590
299,582
306,584
306,589
300,578
310,591
300,581
306,584
307,589
297,578
308,591
300,582
306,584
306,589
299,578
308,589
301,583
304,584
309,590
299,578
309,589
303,585
304,582
309,591
297,578
309,590
300,584
304,583
308,589
298,578
309,588
302,586
305,582
308,590
297,578
308,589
304,586
304,581
308,591
299,579
309,589
302,588
304,580
308,589
298,580
309,588
306,587
302,581
309,590
299,579
308,588
304,588
302,579
309,591
298,579
309,588
309,588
305,587
302,580
310,591
298,579
309,588
304,586
302,579
309,591
299,581
309,587
306,589
301,578
310,591
299,582
308,586
305,589
300,578
310,591
298,581
308,587
306,589
300,579
310,591
300,581
307,588
306,589
299,577
310,592
298,582
309,586
308,590
299,578
310,592
300,582
307,587
307,589
298,578
310,591
299,583
307,584
306,590
298,578
309,591
301,583
306,584
308,590
308,590
299,577
310,589
301,584
307,584
308,590
298,577
309,591
300,583
306,583
306,590
298,578
309,590
301,584
306,583
307,591
299,578
309,590
302,585
304,582
309,591
299,578
309,590
301,586
305,583
309,592
299,578
311,590
302,586
305,584
309,590
298,579
310,589
302,587
304,581
310,593
297,577
309,588
303,589
305,583
309,591
298,579
308,588
304,588
305,582
310,592
297,580
309,589
304,587
304,582
308,591
298,580
308,588
305,588
302,580
309,590
298,579
308,588
305,589
304,580
309,590
309,590
298,581
307,587
305,587
302,580
308,590
298,581
308,587
304,589
302,580
310,591
299,583
309,587
307,590
300,577
309,590
300,583
308,588
306,591
299,577
311,591
299,581
307,585
306,589
298,577
309,590
300,582
308,586
306,590
299,577
309,591
300,582
307,584
306,589
299,579
310,590
300,584
306,584
306,590
298,578
311,590
302,583
306,584
307,591
298,577
308,589
300,583
306,583
306,592
306,592
298,578
309,591
300,584
306,585
306,591
298,577
309,590
301,584
306,584
307,591
298,578
308,589
302,585
306,583
310,593
297,577
308,591
302,584
304,582
308,590
298,578
309,590
302,586
304,583
309,592
299,577
309,590
303,585
304,582
308,591
298,579
309,589
304,588
303,581
308,590
297,579
310,588
303,588
303,582
309,591
297,579
307,587
303,587
303,581
308,590
298,580
308,588
304,588
303,580
309,592
299,579
309,589
304,587
304,581
308,590
298,580
308,587
305,588
302,580
310,592
299,582
308,587
305,590
305,590
299,578
307,589
297,581
308,586
305,588
300,578
309,591
298,581
306,588
304,589
301,578
307,589
300,582
307,585
304,587
299,578
306,588
300,581
305,585
305,590
298,577
308,588
298,580
305,583
304,587
298,578
305,588
300,582
304,583
305,588
299,579
307,589
300,583
305,582
306,589
298,577
307,589
299,583
305,583
305,588
299,579
307,590
301,583
306,585
306,589
298,579
298,579
308,590
302,584
305,585
307,590
298,580
307,589
301,585
303,583
308,591
297,579
308,592
300,584
304,583
307,591
298,579
308,590
302,586
303,584
309,591
297,580
309,590
302,587
303,583
308,591
297,578
309,589
303,587
304,584
308,591
298,580
309,589
303,587
303,580
307,590
298,579
308,589
304,589
304,582
307,590
298,580
306,586
303,588
303,581
308,591
299,579
309,590
303,588
302,580
308,591
297,579
308,587
304,588
301,579
308,592
299,581
307,589
304,588
301,579
301,579
308,590
299,582
308,587
305,590
301,579
309,591
299,582
306,586
305,590
299,579
308,591
299,582
306,588
304,589
299,579
308,590
298,583
307,587
306,591
299,579
309,592
299,582
306,587
305,589
298,580
307,589
299,583
306,585
305,590
298,579
308,589
299,583
306,585
305,590
298,579
308,590
301,585
305,584
307,591
299,580
308,589
300,585
305,584
307,590
297,578
308,590
300,585
300,585
305,584
307,591
298,579
308,591
300,583
305,583
307,591
298,579
308,591
302,586
304,583
308,590
298,579
308,589
302,587
302,582
308,591
298,580
309,590
302,585
303,582
307,591
298,580
309,590
302,588
303,583
308,590
299,581
307,588
304,587
302,581
307,589
298,581
309,589
305,589
303,580
309,592
298,580
308,588
303,586
301,580
309,591
299,582
309,589
305,587
303,581
308,590
299,581
307,586
304,589
302,580
309,591
299,583
307,587
306,590
299,579
310,590
299,582
299,582
307,587
305,589
301,579
307,591
300,582
307,587
305,589
299,580
308,590
298,582
307,586
305,591
299,578
309,591
299,583
306,585
306,589
298,578
309,591
301,585
306,585
306,591
297,577
308,591
299,583
306,585
307,591
298,580
308,592
300,584
305,586
306,590
298,579
308,591
301,584
305,583
307,592
298,579
309,591
300,585
304,584
307,591
298,579
309,591
301,585
304,585
308,591
297,579
297,579
308,590
301,586
304,582
307,591
308,589
301,587
304,583
308,590
308,590
298,580
308,590
301,586
304,584
308,592
298,581
307,588
304,587
302,582
308,591
297,581
307,588
303,589
301,580
308,593
298,579
308,588
303,588
303,581
308,592
300,581
308,588
303,588
301,582
306,591
299,582
307,587
305,589
303,581
307,591
299,582
307,587
306,589
300,579
309,592
300,583
306,586
305,589
300,581
306,591
300,584
306,587
305,591
298,579
308,590
299,582
307,586
306,590
299,579
299,579
308,591
300,583
307,585
306,589
299,579
307,590
301,585
304,585
306,591
298,578
308,590
301,583
305,586
307,592
297,578
308,591
300,585
305,584
306,590
297,579
308,590
301,585
305,584
308,591
297,578
308,591
300,585
304,584
306,590
298,580
308,591
302,585
304,584
308,590
297,579
308,590
301,586
304,584
306,591
298,579
309,589
303,587
304,584
306,591
298,579
298,579
307,589
303,583
308,590
297,579
308,589
302,587
303,581
307,590
298,580
308,589
304,587
304,587
303,582
308,592
298,580
308,589
303,587
303,580
308,589
300,581
308,588
305,588
302,580
307,589
299,581
308,588
304,588
301,580
307,589
299,581
307,587
304,590
301,581
309,592
298,581
306,586
305,590
300,579
310,592
299,583
308,588
305,589
300,579
307,589
299,583
306,586
307,591
300,579
308,590
300,583
305,586
306,589
298,578
308,590
301,583
306,584
306,592
298,578
309,591
300,584
300,584
305,586
306,590
298,579
307,592
300,583
306,584
307,592
299,579
309,591
301,585
305,585
307,590
297,580
309,591
300,585
305,584
306,590
298,579
308,590
303,587
303,583
308,591
297,579
309,590
302,586
303,583
309,591
297,579
308,589
304,587
303,582
309,591
298,581
309,589
304,587
301,580
308,592
298,579
307,588
304,589
302,581
308,592
299,581
307,588
306,589
302,580
308,590
297,581
307,587
305,589
301,580
308,591
298,582
306,587
304,590
302,581
308,591
299,582
299,582
306,587
303,589
300,580
307,589
300,582
306,586
305,589
298,579
308,590
299,583
305,586
306,591
298,578
308,591
299,583
306,585
306,591
297,577
309,590
300,583
307,584
306,591
298,578
308,591
301,583
305,584
306,591
299,578
307,589
300,585
305,584
308,591
299,579
308,589
302,586
303,583
308,592
297,579
308,590
302,585
304,584
308,590
298,580
308,589
303,587
303,581
309,590
298,578
308,588
302,588
302,588
302,581
307,592
297,578
308,587
304,588
302,580
309,589
298,579
308,588
305,589
304,581
311,594
297,581
311,590
306,591
303,579
308,590
298,581
311,591
311,596
310,589
319,602
306,589
316,596
312,595
305,584
313,593
303,585
311,590
311,591
303,581
314,593
302,585
310,588
309,591
302,579
313,593
301,582
310,587
307,591
299,578
311,590
302,583
309,584
308,592
299,577
312,591
300,582
308,583
309,592
299,576
312,593
303,583
308,585
310,592
299,577
311,591
303,585
307,583
312,592
312,592
299,577
314,592
304,587
305,584
311,594
298,577
313,592
305,587
305,583
313,594
300,578
315,592
306,589
307,584
313,595
299,580
316,592
307,591
307,582
314,595
298,578
314,592
307,590
307,582
314,595
300,580
315,593
308,592
305,579
315,597
298,580
314,593
309,591
306,579
315,597
300,583
315,594
308,592
304,578
315,597
298,582
314,593
310,595
303,580
316,600
301,584
314,592
314,592
311,594
301,578
317,599
302,585
314,592
313,596
300,579
317,600
301,585
316,591
314,597
299,578
317,599
302,584
315,590
314,599
299,579
318,600
303,587
313,590
314,599
299,578
320,600
303,588
313,590
315,599
300,580
319,601
303,589
311,590
317,600
298,579
320,601
305,592
312,590
317,600
298,579
318,599
307,592
310,588
318,601
298,578
320,601
306,592
311,587
316,600
299,580
319,600
309,594
310,585
318,602
298,578
319,598
309,594
309,583
317,602
298,580
319,598
309,594
308,582
319,602
300,583
318,598
310,596
306,580
320,602
320,602
299,584
318,596
311,597
303,579
320,602
300,584
318,596
312,597
303,579
319,602
301,586
317,596
312,598
301,580
318,602
302,585
318,592
314,599
301,578
318,602
302,585
315,592
314,599
301,579
320,602
303,588
313,591
314,600
298,578
319,601
303,588
312,590
315,601
300,579
321,602
305,590
312,589
315,600
299,579
320,601
306,592
312,589
317,601
299,580
319,599
307,593
