IR Value,Red Value
58274,17331
58256,17300
58250,17297
58242,17284
58237,17279
58219,17251
58200,17252
58192,17224
58207,17246
58217,17287
58249,17293
58249,17293
58249,17295
58211,17251
58207,17230
58232,17259
58276,17328
58295,17324
58280,17340
58238,17266
58212,17245
58177,17189
58153,17172
58114,17161
58140,17159
58153,17164
58196,17211
58226,17277
58266,17311
58273,17329
58291,17337
58289,17343
58273,17323
58261,17329
58248,17283
58220,17261
58211,17256
58210,17230
58184,17211
58190,17216
58197,17239
58194,17227
58188,17228
58184,17219
58194,17209
58189,17220
58200,17234
58191,17232
58211,17245
58207,17235
58221,17258
58219,17264
58218,17237
58222,17271
58224,17272
58228,17282
58217,17261
58216,17267
58200,17242
58190,17244
58132,17165
58141,17188
58138,17183
58162,17216
58183,17253
58190,17219
58118,17148
58097,17123
58121,17151
58151,17194
58151,17194
58188,17234
58176,17216
58175,17204
58139,17172
58144,17169
58126,17146
58099,17114
58101,17129
58110,17140
58139,17171
58175,17194
58178,17218
58195,17217
58181,17223
58193,17234
58175,17212
58172,17212
58171,17176
58161,17208
58148,17173
58147,17191
58159,17189
58141,17180
58151,17197
58142,17199
58158,17188
58164,17200
58161,17186
58173,17227
58156,17198
58179,17209
58176,17215
58172,17208
58153,17192
58163,17207
58161,17192
58153,17200
58148,17196
58145,17185
58155,17195
58147,17191
58149,17191
58157,17193
58151,17202
58153,17193
58133,17166
58141,17162
58141,17162
58142,17180
58100,17136
58065,17086
58063,17100
58082,17105
58087,17130
58138,17175
58090,17134
58036,17046
58027,17049
58063,17070
58115,17123
58143,17170
58154,17181
58113,17138
58120,17136
58100,17110
58070,17081
58050,17072
58059,17071
58063,17081
58089,17100
58088,17112
58089,17095
58089,17099
58086,17082
58061,17089
58031,17050
58002,17004
57986,16972
57987,16969
57998,16987
57983,16980
57939,16909
57850,16817
57785,16754
57776,16740
57783,16761
57833,16790
57865,16842
57923,16914
57954,16928
57979,16947
57978,16964
58014,16996
57966,16946
57952,16941
57943,16916
57968,16923
57954,16956
57997,16992
57946,16945
57922,16904
57911,16886
57955,16925
57998,16975
58019,17018
58019,17018
58001,17001
57994,16994
57976,16959
57961,16925
57919,16892
57923,16886
57920,16913
57948,16900
57948,16933
57990,16967
58007,16992
57994,16986
57985,16974
57958,16936
57922,16913
57909,16878
57904,16862
57876,16844
57869,16854
57886,16858
57903,16863
57884,16855
57868,16834
57864,16837
57905,16857
57947,16917
57991,16970
57978,16975
57985,16959
57958,16945
57960,16932
57904,16874
57895,16866
57883,16842
57891,16877
57914,16899
57950,16946
57993,16986
57997,16997
58023,17022
58013,17022
57973,16970
57945,16946
57965,16948
57996,16997
58018,17013
58018,17013
58044,17049
58021,17010
57993,17002
58014,17006
58056,17058
58095,17107
58069,17104
58055,17067
58037,17052
58053,17053
58059,17045
58008,17002
58022,17020
58003,16997
58015,17012
58044,17055
58056,17052
58079,17081
58060,17067
58045,17049
58017,17033
57996,17010
57983,16986
57977,16977
57969,16946
57973,16967
57967,16951
57964,16947
57957,16941
57959,16940
57958,16939
57968,16968
57965,16959
57970,16954
57969,16963
57986,16973
57973,16975
57990,16987
57996,16979
58008,17005
57973,16973
57967,16987
57953,16943
57957,16951
57961,16957
57966,16959
57955,16957
57938,16929
57912,16921
57819,16797
57815,16775
57818,16796
57824,16790
57877,16867
57866,16865
57843,16807
57833,16804
57833,16804
57859,16837
57876,16850
57924,16901
57944,16919
57923,16905
57913,16882
57893,16852
57867,16827
57856,16799
57852,16805
57836,16786
57838,16785
57843,16811
57869,16837
57868,16835
57864,16837
57851,16804
57844,16794
57836,16797
57820,16770
57802,16759
57780,16720
57772,16710
57770,16723
57777,16724
57773,16715
57777,16731
57776,16731
57783,16734
57787,16737
57779,16723
57787,16746
57786,16751
57785,16759
57804,16755
57792,16738
57796,16760
57783,16740
57797,16742
57786,16753
57774,16726
57782,16751
57770,16712
57768,16718
57763,16697
57763,16697
57753,16715
57737,16689
57737,16695
57742,16706
57728,16694
57699,16637
57659,16594
57639,16562
57652,16577
57672,16604
57717,16662
57684,16645
57646,16570
57656,16558
57679,16578
57719,16658
57746,16690
57751,16689
57740,16659
57707,16650
57735,16647
57719,16660
57708,16622
57719,16658
57719,16670
57749,16694
57783,16729
57822,16764
57830,16780
57826,16786
57806,16760
57806,16762
57787,16739
57796,16740
57777,16747
57780,16733
57800,16735
57790,16749
57798,16735
57794,16738
57787,16716
57780,16721
57770,16725
57782,16736
57781,16722
57754,16702
57723,16641
57733,16679
57722,16665
57750,16706
57765,16709
57742,16663
57694,16632
57674,16586
57699,16640
57719,16635
57719,16635
57727,16670
57684,16601
57617,16534
57575,16499
57568,16470
57528,16411
57517,16425
57491,16385
57513,16414
57532,16409
57566,16491
57593,16512
57617,16532
57627,16551
57629,16555
57618,16549
57606,16532
57616,16525
57620,16539
57631,16556
57618,16538
57593,16516
57600,16503
57578,16496
57585,16497
57582,16481
57581,16483
57583,16476
57581,16510
57593,16506
57592,16501
57603,16528
57609,16539
57626,16553
57650,16555
57694,16627
57710,16644
57756,16680
57750,16691
57772,16722
57771,16728
57792,16727
57804,16753
57803,16740
57814,16783
57818,16772
57825,16787
57788,16755
57788,16755
57795,16748
57796,16754
57833,16815
57869,16857
57846,16796
57786,16743
57801,16743
57820,16767
57886,16834
57899,16872
57932,16897
57891,16856
57883,16847
57875,16839
57859,16802
57831,16786
57834,16777
57845,16775
57865,16812
57873,16816
57889,16866
57882,16840
57899,16863
57887,16852
57863,16839
57864,16812
57846,16793
57850,16805
57849,16776
57839,16780
57825,16766
57835,16776
57824,16769
57829,16785
57819,16774
57837,16791
57835,16784
57837,16791
57831,16777
57852,16799
57836,16796
57847,16788
57845,16788
57835,16793
57815,16763
57826,16789
57822,16764
57825,16756
57819,16795
57824,16765
57816,16770
57806,16751
57815,16761
57790,16752
57777,16739
57774,16703
57772,16706
57772,16706
57759,16679
57729,16648
57689,16607
57692,16617
57689,16593
57715,16642
57730,16659
57686,16619
57643,16538
57599,16470
57638,16532
57647,16549
57670,16573
57683,16583
57660,16541
57638,16534
57630,16498
57617,16507
57599,16487
57617,16509
57627,16513
57655,16531
57691,16584
57719,16614
57731,16627
57721,16642
57716,16631
57690,16588
57679,16598
57674,16576
57664,16562
57659,16548
57655,16549
57643,16543
57652,16550
57646,16550
57665,16562
57667,16561
57660,16563
57646,16543
57652,16557
57641,16543
57640,16535
57610,16502
57597,16478
57584,16469
57593,16491
57616,16502
57602,16477
57553,16417
57559,16429
57590,16459
57590,16459
57633,16516
57629,16503
57624,16509
57581,16463
57575,16449
57547,16422
57544,16401
57538,16412
57547,16397
57566,16431
57575,16465
57617,16486
57662,16564
57653,16555
57662,16568
57631,16523
57624,16493
57602,16483
57602,16483
57596,16465
57600,16477
57580,16476
57586,16462
57607,16493
57580,16459
57608,16497
57618,16489
57612,16509
57625,16516
57608,16496
57628,16506
57628,16506
57617,16510
57625,16519
57608,16508
57616,16512
57603,16507
57592,16499
57584,16456
57572,16466
57580,16477
57580,16477
57612,16509
57591,16479
57551,16421
57541,16392
57565,16414
57625,16501
57640,16534
57652,16543
57639,16532
57635,16521
57629,16511
57571,16463
57581,16446
57565,16441
57571,16453
57597,16491
57615,16493
57638,16532
57644,16544
57648,16538
57638,16546
57629,16513
57612,16497
57591,16466
57578,16462
57571,16449
57575,16453
57566,16425
57562,16438
57558,16432
57578,16449
57568,16440
57580,16462
57574,16455
57573,16462
57569,16468
57574,16452
57585,16472
57594,16474
57579,16500
57586,16476
57601,16491
57589,16500
57596,16488
57596,16488
57608,16497
57599,16490
57599,16495
57598,16487
57603,16489
57570,16455
57553,16447
57556,16413
57572,16456
57592,16492
57613,16525
57573,16463
57537,16415
57534,16407
57571,16475
57618,16505
57642,16546
57633,16542
57633,16532
57632,16511
57623,16508
57585,16491
57586,16441
57582,16470
57573,16447
57598,16487
57631,16495
57645,16565
57649,16526
57650,16546
57633,16527
57617,16507
57606,16505
57590,16478
57586,16465
57583,16457
57565,16455
57584,16469
57602,16473
57596,16499
57574,16473
57584,16476
57589,16498
57595,16486
57601,16491
57603,16503
57599,16481
57607,16510
57588,16483
57591,16488
57592,16503
57586,16479
57593,16481
57587,16474
57585,16459
57572,16456
57528,16415
57511,16401
57509,16393
57525,16404
57546,16431
57541,16433
57458,16326
57433,16290
57443,16285
57478,16325
57500,16367
57500,16367
57513,16398
57497,16357
57474,16347
57474,16327
57427,16282
57408,16272
57392,16235
57407,16227
57389,16239
57421,16279
57439,16293
57466,16311
57471,16317
57456,16314
57473,16312
57439,16281
57437,16288
57426,16259
57422,16284
57419,16251
57415,16262
57419,16264
57411,16254
57397,16243
57372,16212
57360,16175
57365,16188
57373,16186
57393,16226
57373,16214
57339,16168
57345,16153
57358,16170
57394,16223
57421,16252
57437,16273
57426,16252
57425,16248
57390,16224
57369,16185
57338,16165
57342,16169
57341,16150
57369,16196
57364,16194
57369,16199
57351,16187
57351,16187
57353,16182
57321,16138
57294,16086
57250,16055
57251,16049
57261,16078
57290,16108
57293,16113
57325,16160
57305,16126
57289,16115
57309,16121
57335,16160
57386,16224
57393,16214
57392,16236
57393,16229
57398,16241
57376,16198
57359,16194
57334,16159
57351,16169
57327,16161
57360,16188
57378,16222
57376,16206
57384,16221
57366,16203
57383,16228
57350,16191
57355,16186
57351,16184
57342,16174
57337,16172
57331,16144
57332,16187
57326,16143
57318,16148
57317,16152
57314,16154
57327,16154
57338,16160
57326,16169
57332,16165
57329,16177
57339,16164
57343,16176
57346,16157
57342,16176
57339,16168
57347,16186
57325,16170
57334,16171
57326,16171
57334,16183
57325,16155
57295,16125
57295,16125
57250,16061
57245,16043
57242,16051
57254,16077
57295,16134
57288,16109
57247,16073
57215,16021
57237,16055
57257,16084
57306,16120
57334,16157
57307,16150
57299,16124
57287,16120
57274,16095
57253,16085
57261,16072
57268,16075
57276,16092
57308,16120
57308,16136
57322,16154
57329,16151
57326,16160
57307,16164
57314,16131
57300,16117
57290,16108
57276,16094
57272,16089
57262,16088
57267,16088
57266,16092
57272,16073
57262,16088
57267,16092
57272,16128
57279,16103
57277,16110
57283,16100
57249,16059
57004,15770
56738,15438
56604,15257
56604,15257
56636,15321
56702,15394
56804,15517
56849,15588
56872,15621
56903,15638
56887,15610
56856,15574
56824,15526
56803,15528
56804,15530
56805,15521
56759,15457
56689,15386
56707,15395
56753,15439
56811,15534
56849,15565
56876,15596
56865,15580
56847,15570
56853,15573
56822,15538
56813,15522
56813,15530
56839,15544
56851,15578
56890,15617
56910,15651
56926,15647
56905,15641
56922,15653
56903,15634
56898,15628
56894,15622
56895,15593
56873,15588
56879,15617
56866,15579
56881,15603
56872,15589
56876,15607
56867,15598
56859,15577
56850,15558
56842,15555
56866,15585
56866,15592
56901,15636
56880,15604
56862,15579
56864,15567
56904,15632
56957,15679
56985,15731
57009,15743
56982,15742
56983,15716
56974,15710
56974,15710
56961,15698
56938,15676
56945,15682
56960,15704
56995,15750
57013,15770
57027,15793
57018,15787
57006,15760
56990,15730
56973,15718
56956,15702
56938,15679
56944,15674
56937,15673
56934,15689
56966,15720
57006,15756
57000,15762
56983,15731
56969,15738
56992,15749
57021,15775
57056,15812
57058,15803
57049,15807
57059,15812
57046,15788
57033,15789
57004,15758
56990,15749
56995,15757
57019,15783
57023,15770
57049,15807
57043,15809
57043,15823
57046,15796
57035,15796
57021,15789
57016,15774
56998,15763
57005,15756
56994,15750
56994,15750
56991,15755
56991,15755
57014,15772
57007,15770
57012,15781
57014,15781
57009,15786
57024,15794
57026,15799
57030,15796
57033,15796
57041,15808
57032,15813
57027,15804
57042,15808
57026,15811
57039,15818
57038,15799
57034,15803
57047,15826
57038,15805
57055,15821
57044,15827
57047,15835
57039,15827
57042,15826
57032,15816
57018,15771
57018,15797
57023,15794
57060,15857
57077,15876
57049,15824
57000,15766
57015,15770
57036,15832
57090,15886
57106,15898
57125,15926
57092,15886
57077,15863
57069,15842
57048,15822
57028,15795
57024,15799
57020,15789
57047,15803
57072,15839
57069,15838
57082,15868
57070,15865
57059,15840
57066,15845
57039,15823
57044,15822
57028,15805
57021,15818
57021,15818
57022,15792
57037,15810
57031,15804
57035,15805
57029,15816
57039,15823
57035,15835
57052,15830
57048,15831
57049,15840
57039,15834
57029,15801
57034,15816
57045,15817
57041,15823
57030,15822
57034,15804
57035,15825
57036,15819
57021,15797
57037,15833
57028,15819
57026,15820
57005,15787
56988,15755
56927,15703
56930,15689
56940,15717
56948,15716
56978,15732
56901,15651
56873,15600
56875,15606
56922,15646
56955,15684
56995,15753
56998,15747
56972,15739
56963,15719
56947,15719
56953,15701
56954,15688
56943,15688
56979,15724
57013,15787
57054,15837
57070,15842
57070,15842
57063,15848
57053,15834
57038,15819
57020,15787
57021,15777
57009,15771
56987,15767
56963,15733
56959,15714
56988,15742
56988,15742
56993,15743
56989,15728
56946,15692
56934,15672
56953,15696
56978,15733
56987,15739
56986,15752
56975,15720
56959,15718
56958,15711
56948,15704
56904,15669
56918,15665
56940,15685
56946,15705
56978,15716
56991,15744
57012,15787
57015,15777
57024,15791
57010,15759
57008,15782
56996,15747
56992,15756
56981,15722
56968,15740
56958,15704
56966,15730
56960,15724
56962,15728
56952,15734
56957,15717
56943,15718
56950,15717
56946,15724
56968,15739
56953,15720
56929,15680
56922,15665
56926,15671
56928,15688
56970,15753
56952,15705
56918,15669
56904,15650
56904,15650
56941,15707
56976,15727
57004,15752
56993,15756
56987,15745
56967,15736
56977,15727
56941,15694
56932,15682
56917,15678
56924,15682
56939,15676
56965,15700
56976,15719
56975,15736
56960,15730
56955,15712
56949,15701
56930,15681
56930,15670
56907,15658
56922,15657
56900,15649
56894,15641
56907,15640
56914,15654
56911,15642
56913,15671
56907,15656
56907,15656
56906,15683
56913,15657
56905,15657
56905,15656
56907,15670
56896,15638
56884,15646
56870,15598
56838,15589
56810,15541
56787,15527
56772,15510
56767,15498
56774,15489
56782,15517
56778,15521
56778,15521
56793,15504
56779,15506
56771,15490
56766,15479
56776,15505
56775,15488
56725,15447
56632,15317
56628,15318
56628,15318
56670,15327
56665,15361
56711,15414
56708,15406
56694,15395
56685,15371
56681,15377
56665,15338
56665,15348
56670,15342
56686,15370
56713,15398
56703,15420
56744,15447
56744,15462
56757,15472
56735,15425
56709,15423
56707,15397
56697,15392
56696,15384
56707,15388
56697,15396
56710,15406
56692,15380
56682,15390
56684,15394
56696,15388
56700,15416
56695,15392
56701,15392
56711,15424
56709,15427
56716,15412
56694,15380
56679,15359
56682,15371
56698,15401
56719,15428
56717,15416
56681,15383
56699,15400
56735,15429
56791,15489
56804,15533
56833,15547
56822,15528
56822,15528
56814,15538
56799,15503
56784,15501
56778,15476
56784,15484
56807,15506
56844,15560
56900,15615
56939,15687
56932,15671
56930,15669
56904,15644
56885,15610
56884,15609
56864,15597
56854,15589
56867,15604
56863,15617
56875,15621
56878,15628
56835,15569
56806,15528
56810,15534
56852,15569
56874,15602
56904,15628
56902,15634
56906,15629
56907,15653
56904,15632
56890,15629
56856,15586
56860,15610
56868,15601
56880,15603
56873,15623
56901,15640
56912,15661
56913,15646
56908,15653
56892,15653
56912,15652
56884,15639
56900,15645
56902,15646
56895,15631
56893,15633
56893,15633
56879,15630
56869,15619
56824,15549
56833,15559
56840,15578
56861,15592
56893,15628
56891,15641
56872,15597
56872,15597
56874,15635
56886,15637
56934,15691
56949,15703
56970,15715
56953,15699
56954,15689
56953,15722
56921,15664
56912,15676
56899,15630
56914,15651
56921,15663
56934,15674
56957,15709
56951,15697
56955,15699
56947,15689
56942,15668
56937,15671
56918,15653
56919,15677
56911,15661
56921,15683
56917,15653
56925,15677
56902,15663
56923,15675
56908,15668
56927,15680
56914,15665
56938,15687
56921,15664
56923,15653
56918,15676
56925,15674
56924,15684
56926,15681
56929,15685
56926,15694
56931,15685
56938,15692
56935,15689
56930,15693
56927,15683
56927,15683
56916,15656
56879,15624
56887,15633
56887,15635
56915,15670
56947,15721
56919,15695
56877,15636
56875,15610
56897,15634
56947,15692
56956,15716
56956,15708
56930,15687
56920,15668
56907,15652
56882,15614
56833,15565
56790,15515
56791,15495
56780,15472
56778,15467
56809,15519
56841,15561
56860,15599
56844,15596
56817,15550
56771,15498
56793,15492
56823,15535
56838,15582
56841,15600
56815,15607
56760,15554
56785,15571
56831,15641
56840,15655
56866,15678
56875,15696
56846,15646
56788,15590
56774,15545
56785,15571
56782,15565
56782,15558
56742,15537
56679,15452
56636,15364
56646,15404
56656,15410
56680,15425
56682,15435
56665,15401
56686,15433
56716,15495
56763,15516
56770,15549
56768,15532
56741,15513
56712,15468
56712,15468
56696,15444
56666,15416
56660,15421
56651,15429
56683,15453
56729,15512
56767,15560
56806,15599
56808,15595
56783,15589
56779,15570
56750,15553
56746,15530
56719,15508
56715,15480
56712,15500
56721,15497
56747,15524
56778,15544
56801,15566
56729,15514
56705,15459
56702,15464
56719,15484
56758,15517
56752,15488
56724,15453
56720,15458
56690,15472
56686,15425
56680,15411
56693,15429
56710,15451
56720,15458
56725,15462
56732,15472
56736,15487
56739,15491
56755,15502
56753,15515
56784,15535
56786,15526
56782,15542
56768,15522
56777,15536
56765,15523
56771,15527
56771,15527
56764,15525
56778,15536
56773,15540
56777,15535
56754,15527
56769,15516
56778,15527
56775,15534
56776,15542
56733,15468
56719,15443
56696,15446
56718,15471
56717,15463
56722,15478
56686,15443
56683,15407
56696,15437
56745,15470
56746,15490
56742,15495
56721,15437
56702,15427
56708,15440
56697,15404
56665,15386
56654,15369
56629,15335
56642,15330
56641,15356
56668,15372
56665,15390
56660,15362
56659,15376
56631,15339
56628,15330
56626,15338
56626,15335
56624,15344
56616,15324
56622,15319
56618,15346
56615,15318
56624,15325
56618,15329
56636,15333
56621,15346
56636,15360
56631,15348
56646,15359
56647,15364
56645,15352
56653,15360
56649,15350
56656,15372
56656,15372
56653,15369
56657,15389
56643,15382
56664,15375
56667,15398
56664,15388
56671,15398
56654,15382
56677,15385
56663,15381
56665,15377
56668,15392
56643,15379
56644,15356
56646,15355
56628,15351
56625,15350
56623,15343
56594,15305
56568,15274
56573,15283
56574,15290
56605,15330
56631,15357
56607,15340
56563,15269
56523,15231
56553,15237
56597,15309
56626,15335
56652,15351
56621,15331
56616,15329
56614,15318
56604,15316
56578,15267
56579,15290
56570,15281
56602,15308
56622,15333
56653,15355
56654,15362
56641,15352
56637,15363
56618,15333
56607,15322
56587,15285
56587,15285
56596,15295
56562,15253
56565,15276
56554,15265
56553,15243
56545,15257
56539,15223
56546,15234
56533,15232
56504,15204
56504,15208
56498,15204
56494,15171
56455,15129
56443,15135
56470,15149
56487,15186
56480,15178
56445,15126
56434,15110
56468,15126
56517,15208
56554,15255
56566,15265
56540,15218
56524,15223
56486,15199
56468,15176
56462,15158
56466,15154
56467,15158
56488,15179
56519,15227
56542,15263
56570,15268
56577,15293
56585,15309
56579,15309
56566,15272
56552,15251
56540,15232
56539,15230
56522,15255
56520,15227
56512,15227
56501,15202
56477,15186
56478,15167
56476,15178
56499,15177
56522,15221
56524,15227
56484,15189
56475,15162
56490,15180
56509,15198
56537,15248
56517,15224
56523,15207
56523,15207
56517,15196
56507,15192
56490,15172
56470,15153
56487,15156
56479,15167
56500,15175
56488,15178
56511,15188
56492,15173
56484,15150
56461,15131
56399,15083
56399,15050
56387,15044
56378,15038
56380,15034
56374,15028
56372,15022
56378,15021
56371,15020
56373,15036
56366,15029
56381,15028
56374,15045
56383,15033
56377,15021
56383,15041
56360,15036
56378,15047
56365,15037
56374,15031
56371,15041
56373,15037
56374,15029
56367,15039
56358,15033
56349,15022
56341,15022
56347,15012
56315,14983
56322,15004
56298,14978
56295,14951
56243,14900
56243,14900
56236,14878
56241,14887
56241,14888
56287,14939
56272,14926
56229,14883
56190,14817
56216,14831
56221,14847
56251,14894
56246,14888
56251,14892
56224,14867
56222,14865
56196,14836
56180,14795
56150,14783
56168,14785
56174,14787
56206,14854
56210,14839
56212,14841
56216,14844
56201,14859
56197,14821
56177,14807
56174,14811
56160,14779
56145,14761
56130,14741
56128,14727
56117,14732
56109,14712
56094,14713
56081,14691
56077,14700
56086,14676
56078,14684
56082,14681
56081,14695
56078,14679
56066,14664
56065,14677
56046,14662
56056,14653
56048,14648
56037,14649
56025,14618
56028,14628
56010,14616
56021,14613
56016,14603
55982,14575
55955,14542
55958,14542
55981,14578
56007,14601
56007,14601
55995,14599
55943,14516
55912,14479
55942,14504
55991,14556
56023,14606
56054,14639
56031,14608
56033,14607
56015,14583
55994,14582
55972,14541
55980,14548
55988,14573
56017,14583
56036,14617
56053,14656
56066,14674
56050,14651
56053,14647
56030,14614
56027,14611
56023,14607
56025,14626
56026,14624
56016,14596
55988,14567
55953,14502
55922,14489
55917,14491
55925,14501
55866,14435
55821,14405
55791,14360
55681,14259
55629,14188
55626,14177
55679,14223
55755,14312
55754,14314
55728,14284
55709,14261
55709,14258
55705,14260
55705,14234
55686,14243
55695,14232
55695,14232
55749,14317
55749,14317
55790,14358
55804,14365
55823,14417
55832,14399
55829,14417
55817,14400
55817,14408
55804,14395
55800,14370
55799,14379
55796,14387
55815,14391
55809,14374
55809,14388
55810,14387
55827,14388
55811,14386
55818,14405
55828,14404
55836,14397
55837,14413
55833,14402
55839,14420
55839,14414
55836,14429
55841,14429
55842,14429
55844,14424
55844,14424
55850,14449
55878,14455
55866,14450
55864,14466
55847,14440
55845,14447
55849,14431
55877,14479
55885,14490
55889,14518
55824,14407
55785,14362
55763,14341
55796,14368
55820,14404
55859,14445
55850,14468
55868,14463
55846,14429
55840,14438
55816,14394
55813,14380
55804,14377
55811,14382
55810,14397
55842,14424
55841,14428
55841,14428
55853,14404
55843,14426
55835,14415
55838,14412
55827,14380
55819,14381
55811,14388
55804,14359
55801,14375
55800,14377
55811,14379
55797,14378
55802,14369
55797,14384
55813,14399
55802,14378
55814,14387
55809,14384
55820,14393
55834,14437
55851,14432
55846,14428
55836,14414
55835,14420
55819,14408
55820,14410
55813,14409
55807,14383
55765,14346
55760,14323
55769,14338
55776,14359
55810,14395
55758,14340
55719,14273
55678,14229
55687,14221
55709,14263
55731,14296
55749,14294
55727,14291
55714,14248
55704,14243
55684,14223
55674,14200
55664,14192
55673,14195
55673,14195
55678,14227
55721,14249
55729,14265
55724,14275
55738,14279
55710,14278
55696,14238
55702,14252
55694,14222
55687,14221
55671,14207
55680,14218
55666,14192
55671,14213
55671,14206
55664,14200
55677,14207
55668,14207
55668,14190
55650,14181
55634,14166
55639,14165
55661,14191
55676,14214
55653,14161
55636,14145
55640,14145
55680,14216
55717,14255
55746,14293
55730,14264
55719,14258
55704,14238
55670,14184
55642,14149
55607,14114
55614,14107
55597,14114
55611,14105
55604,14125
55629,14140
55618,14131
55632,14132
55614,14121
55592,14098
55588,14081
55588,14097
55581,14075
55585,14098
55577,14091
55585,14100
55556,14069
55530,14048
55528,14033
55527,14046
55565,14080
55608,14127
55577,14107
55545,14051
55545,14051
55539,14031
55568,14082
55608,14101
55612,14126
55618,14136
55596,14116
55591,14120
55583,14079
55576,14071
55555,14059
55542,14046
55567,14056
55580,14072
55597,14097
55604,14125
55607,14123
55605,14115
55608,14129
55590,14119
55603,14112
55583,14125
55592,14101
55583,14090
55592,14088
55591,14091
55605,14108
55603,14085
55608,14120
55593,14099
55619,14131
55617,14126
55605,14112
55623,14138
55612,14142
55620,14154
55614,14125
55607,14129
55621,14152
55608,14149
55616,14134
55600,14126
55612,14136
55613,14146
55619,14144
55619,14151
55607,14133
55587,14103
55571,14083
55571,14083
55585,14105
55580,14098
55599,14132
55621,14154
55581,14108
55545,14052
55530,14020
55553,14069
55591,14104
55613,14123
55617,14115
55586,14089
55578,14106
55565,14054
55532,14044
55523,14017
55515,14028
55555,14050
55555,14050
55566,14074
55577,14063
55577,14063
55586,14103
55568,14077
55573,14084
55555,14048
55556,14070
55553,14069
55543,14066
55542,14047
55553,14053
55540,14057
55553,14075
55557,14070
55547,14068
55570,14080
55564,14068
55573,14094
55570,14086
55578,14089
55583,14081
55582,14102
55569,14072
55577,14103
55567,14086
55584,14089
55572,14091
55574,14095
55573,14111
55572,14119
55560,14103
55547,14064
55565,14069
55564,14070
55574,14087
55609,14127
55576,14093
55525,14035
55526,14020
55529,14026
55578,14073
55603,14111
55610,14116
55593,14091
55573,14070
55563,14050
55539,14042
55539,14042
55530,14015
55545,14030
55552,14052
55592,14081
55608,14136
55640,14147
55652,14163
55659,14193
55645,14167
55642,14166
55623,14146
55602,14109
55593,14101
55566,14059
55570,14076
55582,14086
55592,14092
55605,14122
55590,14110
55560,14061
55550,14049
55580,14072
55611,14124
55646,14151
55650,14176
55647,14138
55623,14153
55599,14096
55553,14039
55533,14006
55529,14002
55540,14027
55550,14032
55565,14055
55562,14042
55554,14057
55545,14052
55534,14035
55505,14009
55497,13973
55503,13987
55498,13997
55528,14010
55554,14060
55577,14063
55554,14045
55556,14040
55556,14040
55560,14075
55586,14084
55620,14123
55614,14118
55642,14166
55642,14150
55635,14141
55607,14112
55607,14112
55608,14111
55598,14104
55607,14101
55631,14150
55639,14142
55640,14150
55648,14161
55637,14151
55641,14146
55623,14113
55616,14128
55624,14111
55604,14110
55613,14110
55597,14111
55605,14105
55602,14126
55614,14132
55618,14124
55613,14119
55613,14123
55626,14132
55618,14137
55629,14150
55629,14154
55636,14147
55637,14174
55635,14155
55634,14163
55636,14158
55645,14179
55650,14174
55652,14172
55613,14127
55616,14140
55624,14140
55641,14182
55655,14193
55706,14229
55647,14168
55626,14138
55620,14128
55663,14189
55694,14219
55704,14232
55704,14232
55692,14225
55684,14196
55672,14205
55660,14176
55655,14147
55630,14138
55636,14135
55647,14161
55657,14160
55672,14179
55668,14202
55673,14206
55683,14201
55682,14209
55663,14177
55643,14169
55640,14157
55639,14159
55639,14132
55625,14145
55627,14137
55587,14085
55575,14055
55553,14040
55533,14016
55537,14007
55537,13994
55549,14042
55560,14042
55566,14060
55564,14052
55576,14074
55578,14085
55588,14077
55598,14099
55597,14085
55613,14123
55604,14117
55581,14080
55566,14058
55547,14054
55568,14058
55593,14082
55576,14066
55536,14009
55502,13968
55544,14010
55544,14010
55599,14067
55634,14142
55627,14128
55623,14117
55626,14127
55622,14109
55605,14104
55612,14096
55616,14128
55653,14153
55653,14153
55681,14209
55727,14243
55740,14268
55732,14243
55724,14231
55696,14220
55695,14192
55662,14157
55643,14141
55616,14111
55623,14126
55616,14103
55621,14127
55627,14141
55608,14096
55583,14064
55564,14043
55595,14082
55603,14103
55639,14146
55632,14116
55638,14131
55629,14131
55636,14132
55597,14106
55589,14060
55598,14080
55602,14090
55632,14119
55651,14132
55663,14153
55658,14165
55658,14171
55663,14169
55640,14145
55632,14142
55619,14129
55622,14120
55618,14112
55613,14113
55614,14126
55618,14118
55625,14122
55617,14124
55631,14137
55628,14137
55628,14137
55636,14148
55635,14145
55643,14159
55635,14140
55647,14163
55644,14144
55656,14164
55641,14158
55653,14170
55648,14177
55657,14188
55670,14190
55655,14188
55665,14179
55659,14195
55654,14188
55648,14191
55657,14180
55660,14206
55656,14164
55665,14178
55664,14192
55657,14186
55624,14133
55627,14152
55626,14139
55641,14163
55662,14185
55682,14210
55622,14133
55590,14098
55602,14100
55636,14156
55654,14168
55665,14180
55655,14170
55617,14137
55628,14138
55604,14115
55595,14089
55581,14100
55590,14093
55600,14097
55626,14115
55637,14130
55637,14137
55628,14137
55630,14141
55616,14130
55603,14112
55578,14065
55577,14045
55549,14029
55559,14042
55548,14028
55540,14032
55542,14026
55538,14009
55538,14009
55515,13996
55538,14028
55517,14014
55521,14002
55516,14017
55516,14009
55521,14007
55514,14002
55504,14005
55505,13993
55520,14004
55513,13985
55519,14013
55523,14008
55513,14006
55521,14008
55516,13986
55523,14014
55509,13990
55499,13985
55468,13927
55463,13944
55473,13961
55498,13990
55510,14014
55477,13973
55456,13933
55459,13933
55496,13958
55532,14025
55539,14043
55551,14024
55530,13998
55530,14004
55495,13947
55478,13954
55466,13909
55471,13932
55463,13908
55491,13957
55506,13975
55526,14000
55512,13995
55508,14002
55492,13953
55480,13959
55453,13912
55453,13912
55460,13915
55448,13901
55439,13895
55420,13855
55411,13858
55364,13823
55350,13784
55326,13763
55287,13708
55297,13718
55282,13725
55324,13749
55340,13792
55322,13763
55311,13728
55287,13710
55327,13753
55349,13790
55394,13828
55386,13831
55393,13827
55387,13840
55376,13808
55354,13777
55341,13769
55345,13762
55342,13773
55359,13780
55393,13836
55387,13836
55375,13826
55391,13828
55374,13842
55377,13817
55365,13817
55362,13807
55364,13795
55358,13795
55362,13820
55361,13801
55369,13814
55353,13805
55364,13803
55364,13819
55379,13831
55370,13823
55386,13823
55374,13830
55373,13812
55379,13840
55386,13842
55380,13838
55382,13827
55383,13836
55378,13848
55390,13835
55390,13835
55387,13844
55385,13842
55385,13842
55390,13847
55382,13838
55378,13864
55382,13852
55398,13851
55392,13858
55374,13842
55345,13817
55360,13823
55358,13828
55395,13869
55426,13904
55413,13874
55374,13834
55350,13788
55391,13843
55445,13886
55479,13947
55494,13943
55482,13964
55457,13921
55457,13934
55438,13892
55425,13878
55411,13859
55434,13880
55438,13880
55472,13928
55477,13924
55488,13942
55485,13940
55473,13939
55464,13922
55453,13904
55438,13903
55444,13900
55425,13892
55437,13880
55420,13882
55423,13860
55413,13878
55431,13870
55414,13866
55430,13888
55430,13888
55419,13873
55427,13875
55430,13881
55419,13870
55429,13893
55425,13879
55426,13884
55425,13884
55428,13883
55416,13877
55422,13890
55424,13908
55422,13887
55423,13896
55428,13874
55420,13873
55409,13869
55404,13850
55413,13883
55430,13881
55447,13922
55402,13862
55381,13841
55378,13825
55430,13891
55455,13933
55491,13952
55488,13956
55466,13943
55471,13938
55450,13906
55446,13909
55428,13878
55446,13895
55469,13927
55491,13950
55521,14001
55556,14040
55547,14015
55543,14022
55509,13979
55504,13985
55485,13953
55481,13946
55463,13946
55448,13911
55430,13900
55429,13887
55423,13878
55453,13887
55448,13925
55448,13911
55409,13851
55354,13802
55377,13824
55398,13843
55425,13892
55436,13896
55434,13887
55434,13887
55430,13893
55426,13877
55425,13868
55399,13860
55396,13838
55403,13846
55402,13852
55421,13882
55436,13893
55453,13906
55446,13901
55457,13924
55448,13915
55441,13892
55439,13903
55431,13874
55425,13875
55415,13871
55407,13859
55413,13866
55416,13873
55410,13850
55415,13871
55417,13874
55419,13879
55411,13875
55412,13867
55413,13892
55429,13873
55422,13880
55408,13863
55422,13884
55403,13879
55416,13864
55404,13856
55405,13864
55399,13858
55404,13873
55396,13866
55374,13823
55333,13798
55353,13812
55354,13801
55381,13837
55402,13872
55402,13872
55344,13792
55341,13764
55321,13758
55374,13813
55393,13847
55415,13863
55390,13851
55388,13840
55375,13811
55363,13798
55340,13775
55324,13770
55323,13746
55336,13783
55332,13799
55373,13802
55365,13825
55366,13805
55365,13816
55366,13817
55357,13785
55338,13781
55323,13764
55325,13743
55332,13759
55321,13747
55319,13760
55316,13758
55317,13755
55313,13746
55330,13757
55322,13765
55322,13760
55334,13767
55336,13762
55333,13765
55338,13776
55329,13788
55344,13774
55336,13773
55342,13785
55340,13756
55333,13780
55314,13758
55315,13768
55316,13752
55321,13753
55297,13728
55262,13694
55257,13674
55232,13661
55245,13660
55256,13685
55282,13709
55243,13657
55203,13613
55195,13595
55195,13595
55220,13629
55252,13656
55277,13702
55282,13678
55266,13689
55253,13643
55244,13650
55226,13627
55219,13627
55223,13627
55247,13656
55261,13686
55305,13719
55333,13763
55341,13775
55343,13761
55337,13759
55323,13751
55335,13749
55314,13719
55313,13732
55310,13731
55309,13725
55310,13716
55303,13728
55307,13735
55298,13733
55308,13719
55275,13708
55284,13711
55260,13679
55273,13702
55279,13704
55292,13717
55238,13650
55211,13607
55218,13617
55250,13649
55265,13692
55271,13669
55260,13659
55247,13655
55234,13639
55222,13622
55199,13613
55202,13595
55189,13592
55189,13592
55194,13584
55217,13598
55223,13609
55227,13625
55213,13609
55224,13612
55216,13606
55219,13605
55187,13601
55192,13587
55181,13569
55156,13554
55153,13542
55139,13534
55151,13537
55127,13519
55156,13560
55159,13556
55171,13549
55166,13559
55185,13566
55179,13584
55190,13593
55179,13576
55184,13578
55184,13576
55187,13587
55201,13613
55188,13597
55201,13592
55181,13582
55183,13596
55194,13590
55196,13598
55184,13590
55145,13532
55146,13536
55130,13521
55164,13543
55173,13569
55165,13558
55117,13510
55106,13469
55125,13505
55165,13534
55197,13594
55195,13593
55173,13571
55147,13550
55154,13537
55154,13523
55120,13501
55129,13495
55111,13492
55134,13494
55144,13527
55164,13555
55164,13545
55164,13545
55162,13555
55153,13555
55144,13531
55131,13509
55144,13525
55117,13491
55117,13496
55111,13475
55115,13495
55117,13481
55107,13482
55109,13472
55093,13471
55104,13469
55103,13470
55082,13451
55093,13463
55087,13449
55098,13470
55078,13447
55088,13455
55076,13471
55082,13454
55073,13461
55086,13440
55068,13435
55040,13398
55024,13397
55049,13405
55041,13436
55080,13464
55042,13422
55033,13395
55041,13410
55094,13451
55121,13483
55141,13514
55146,13538
55126,13493
55125,13490
55101,13434
55089,13448
55075,13429
55085,13430
55102,13475
55121,13480
55160,13531
55161,13539
55161,13539
55169,13553
55148,13544
55142,13505
55137,13515
55131,13501
55111,13479
55105,13467
55095,13458
55097,13454
55095,13446
55097,13457
55100,13476
55110,13473
55081,13444
55084,13436
55108,13464
55130,13507
55138,13514
55154,13527
55150,13499
55146,13525
55149,13502
55137,13495
55105,13463
55106,13477
55131,13487
55141,13520
55135,13522
55159,13537
55164,13533
55171,13551
55163,13537
55155,13531
55140,13511
55133,13500
55128,13512
55120,13506
55132,13497
55116,13494
55124,13497
55133,13483
55129,13491
55126,13502
55136,13498
55136,13505
55134,13514
55145,13523
55149,13506
55145,13530
55138,13531
55150,13527
55133,13523
55151,13541
55138,13527
55154,13540
55137,13530
55157,13538
55151,13538
55146,13537
55146,13537
55109,13475
55118,13498
55113,13476
55127,13518
55152,13545
55153,13532
55105,13483
55103,13458
55121,13487
55147,13536
55164,13549
55154,13539
55144,13527
55122,13505
55125,13505
55112,13480
55094,13466
55087,13454
55082,13451
55105,13474
55133,13494
55140,13510
55146,13514
55136,13507
55135,13505
55120,13480
55109,13480
55104,13476
55101,13467
55096,13459
55107,13456
55095,13465
55102,13470
55095,13454
55105,13483
55088,13456
55100,13458
55085,13466
55099,13473
55092,13480
55094,13458
55103,13472
55096,13453
55097,13480
55089,13471
55102,13486
55097,13466
55097,13466
55107,13498
55101,13470
55100,13482
55096,13474
55107,13503
55100,13486
55078,13451
55067,13425
55062,13420
55053,13439
55103,13472
55122,13493
55065,13448
55062,13428
55097,13454
55131,13502
55164,13542
55175,13537
55169,13534
55147,13531
55136,13515
55146,13520
55120,13472
55118,13489
55113,13498
55145,13524
55152,13560
55205,13574
55216,13600
55191,13577
55182,13579
55173,13541
55167,13562
55150,13527
55155,13530
55147,13529
55146,13529
55136,13528
55137,13513
55121,13503
55122,13493
55116,13492
55128,13526
55148,13519
55163,13540
55132,13504
55123,13486
55122,13495
55154,13528
55160,13530
55162,13540
55149,13518
55141,13505
55118,13506
55114,13494
55114,13494
55104,13474
55103,13452
55096,13458
55110,13492
55129,13512
55154,13518
55177,13562
55172,13554
55177,13554
55158,13553
55167,13540
55156,13529
55151,13528
55141,13522
55132,13521
55141,13519
55139,13515
55138,13528
55142,13536
55144,13536
55143,13544
55152,13535
55155,13546
55150,13526
55154,13550
55162,13536
55165,13551
55159,13551
55161,13553
55165,13555
55157,13548
55164,13559
55171,13560
55166,13574
55174,13551
55163,13568
55185,13561
55168,13564
55173,13582
55173,13564
55169,13565
55146,13530
55147,13525
55131,13535
55160,13544
55186,13579
55196,13585
55196,13585
55145,13539
55130,13518
55135,13517
55168,13557
55201,13593
55205,13603
55205,13575
55178,13547
1503,2056
1526,2094
1509,2073
1503,2053
1534,2088
1504,2055
1525,2098
1510,2073
1500,2052
1541,2081
1504,2056
1530,2096
1514,2069
1502,2053
1533,2078
1502,2056
1537,2091
1517,2068
1502,2053
1534,2085
1503,2058
1544,2093
1519,2071
1502,2053
1535,2089
1503,2058
1545,2096
1516,2074
1502,2053
1524,2088
1503,2057
1543,2093
1514,2080
1502,2054
1525,2088
1504,2058
1541,2089
1515,2080
1501,2053
1533,2088
1507,2059
1540,2090
1518,2074
1501,2054
1533,2093
1533,2093
1506,2057
1543,2095
1521,2074
1502,2053
1534,2100
1506,2059
1541,2092
1526,2074
1503,2055
1535,2101
1506,2060
1539,2090
1522,2073
1503,2055
1539,2104
1505,2059
1541,2064
1520,2073
1503,2053
1543,2097
1505,2060
1543,2054
1520,2069
1503,2055
1547,2090
1508,2062
1542,2054
1520,2070
1504,2055
1549,2084
1507,2061
1533,2053
1519,2077
1503,2055
1547,2079
1509,2062
1505,2052
1517,2092
1503,2054
1541,2081
1510,2064
1501,2051
1518,2092
1502,2055
1534,2086
1509,2068
1499,2053
1515,2088
1515,2088
1503,2056
1530,2092
1509,2073
1501,2054
1530,2087
1504,2056
1526,2096
1511,2073
1500,2052
1538,2085
1503,2056
1527,2100
1514,2072
1502,2054
1536,2075
1503,2056
1533,2095
1519,2069
1502,2053
1533,2079
1505,2058
1542,2092
1519,2070
1501,2052
1533,2088
1502,2057
1545,2093
1519,2074
1503,2053
1529,2088
1504,2057
1544,2093
1518,2078
1503,2056
1524,2086
1505,2060
1540,2090
1513,2080
1504,2054
1530,2090
1506,2058
1541,2090
1515,2075
1503,2054
1533,2094
1507,2057
1540,2092
1521,2076
1503,2053
1532,2099
1506,2057
1540,2095
1524,2073
1503,2054
1534,2103
1506,2059
1538,2093
1526,2075
1503,2055
1503,2055
1537,2105
1506,2061
1539,2085
1520,2072
1503,2055
1542,2102
1505,2060
1540,2057
1522,2072
1503,2055
1545,2098
1505,2060
1543,2054
1522,2071
1503,2056
1549,2088
1508,2061
1542,2053
1521,2072
1504,2056
1552,2084
1508,2062
1522,2055
1519,2084
1503,2056
1547,2079
1508,2063
1502,2055
1517,2093
1503,2055
1541,2082
1509,2066
1502,2053
1515,2090
1504,2056
1534,2089
1510,2068
1503,2055
1518,2085
1504,2056
1528,2093
1509,2073
1503,2054
1532,2088
1505,2055
1526,2098
1512,2074
1503,2053
1539,2084
1539,2084
1503,2056
1529,2099
1515,2071
1502,2054
1537,2078
1503,2055
1536,2096
1517,2069
1502,2055
1532,2084
1503,2057
1545,2094
1519,2068
1502,2055
1536,2088
1503,2057
1546,2094
1519,2071
1503,2053
1529,2088
1506,2058
1546,2096
1517,2075
1502,2055
1523,2089
1505,2057
1543,2091
1515,2079
1503,2053
1529,2090
1506,2060
1541,2090
1515,2080
1503,2055
1533,2090
1508,2058
1540,2092
1520,2076
1503,2053
1534,2096
1506,2058
1543,2093
1525,2075
1504,2055
1535,2100
1505,2059
1541,2092
1525,2077
1504,2055
1537,2103
1507,2059
1538,2090
1524,2074
1504,2054
1538,2102
1505,2062
1541,2062
1522,2073
1502,2054
1542,2097
1542,2097
1507,2063
1541,2053
1520,2073
1502,2055
1547,2090
1507,2061
1543,2055
1521,2072
1504,2055
1551,2085
1506,2062
1528,2053
1521,2077
1505,2056
1547,2081
1509,2063
1505,2053
1521,2089
1503,2054
1545,2080
1510,2066
1502,2055
1515,2094
1504,2057
1535,2086
1511,2070
1503,2055
1519,2088
1505,2056
1530,2092
1511,2073
1503,2054
1531,2089
1504,2056
1527,2098
1511,2072
1501,2054
1538,2088
1504,2056
1528,2098
1513,2073
1503,2054
1537,2079
1503,2057
1537,2096
1518,2068
1503,2055
1532,2079
1532,2079
1504,2058
1543,2095
1522,2067
1503,2056
1534,2086
1504,2058
1545,2094
1520,2072
1504,2055
1529,2087
1506,2059
1546,2095
1518,2079
1503,2055
1524,2088
1505,2058
1542,2093
1516,2081
1504,2054
1529,2090
1504,2058
1541,2092
1515,2079
1504,2053
1533,2091
1508,2060
1542,2092
1522,2075
1504,2056
1534,2097
1507,2061
1542,2092
1525,2077
1502,2054
1535,2103
1508,2061
1541,2093
1527,2077
1504,2056
1537,2104
1508,2061
1540,2078
1523,2077
1503,2054
1541,2102
1505,2062
1542,2054
1524,2072
1503,2055
1546,2096
1508,2063
1541,2054
1523,2072
1503,2055
1550,2090
1508,2062
1542,2053
1520,2075
1504,2055
1550,2083
1509,2062
1509,2062
1522,2054
1521,2080
1505,2056
1549,2081
1507,2065
1504,2054
1518,2093
1504,2056
1542,2083
1509,2067
1503,2055
1517,2092
1504,2058
1536,2088
1510,2072
1503,2054
1522,2089
1505,2056
1532,2096
1509,2075
1504,2054
1530,2087
1506,2057
1529,2101
1510,2074
1505,2054
1537,2084
1504,2057
1529,2100
1513,2071
1503,2055
1533,2076
1504,2057
1538,2098
1519,2068
1503,2055
1533,2082
1505,2059
1545,2095
1522,2068
1503,2055
1533,2087
1506,2059
1546,2096
1520,2073
1503,2054
1530,2089
1505,2058
1547,2096
1547,2096
1517,2079
1503,2054
1522,2089
1545,2094
1515,2080
1504,2055
1531,2091
1508,2059
1541,2094
1517,2079
1505,2055
1535,2093
1535,2093
1509,2059
1542,2093
1523,2076
1504,2055
1534,2098
1507,2061
1541,2094
1525,2076
1503,2054
1536,2102
1507,2061
1539,2094
1525,2076
1504,2055
1535,2104
1506,2060
1541,2084
1524,2073
1504,2056
1540,2103
1507,2062
1542,2059
1522,2071
1505,2055
1544,2099
1508,2063
1543,2055
1520,2073
1505,2057
1549,2087
1510,2064
1540,2053
1523,2072
1505,2057
1552,2081
1509,2064
1518,2052
1519,2085
1502,2056
1548,2079
1510,2065
1503,2053
1519,2095
1504,2055
1541,2083
1509,2066
1504,2054
1519,2090
1519,2090
1505,2056
1532,2090
1511,2073
1501,2053
1522,2086
1505,2057
1529,2095
1512,2076
1504,2054
1535,2091
1504,2057
1526,2099
1512,2075
1505,2055
1537,2085
1505,2058
1532,2097
1518,2070
1505,2054
1533,2078
1504,2058
1538,2096
1522,2068
1503,2055
1533,2088
1504,2059
1544,2093
1520,2072
1502,2055
1533,2086
1506,2060
1547,2094
1520,2078
1503,2056
1524,2087
1506,2059
1545,2094
1516,2083
1502,2055
1528,2089
1507,2059
1543,2091
1515,2079
1503,2058
1534,2092
1508,2061
1543,2091
1520,2077
1503,2055
1534,2096
1507,2059
1544,2093
1524,2078
1505,2057
1529,2100
1508,2061
1539,2091
1527,2077
1505,2055
1535,2104
1535,2104
1507,2061
1539,2088
1524,2074
1505,2056
1539,2104
1507,2063
1540,2060
1521,2074
1504,2057
1544,2097
1510,2064
1542,2054
1522,2073
1503,2056
1550,2092
1509,2064
1541,2054
1522,2072
1505,2057
1551,2085
1509,2062
1527,2055
1520,2081
1506,2058
1547,2080
1510,2064
1503,2053
1519,2091
1505,2058
1541,2082
1510,2065
1503,2054
1516,2090
1505,2057
1536,2089
1509,2071
1502,2056
1522,2085
1504,2056
1530,2095
1511,2075
1502,2056
1535,2090
1504,2057
1527,2099
1511,2074
1503,2056
1540,2084
1504,2056
1531,2100
1531,2100
1515,2071
1503,2054
1535,2077
1505,2057
1539,2100
1521,2068
1504,2056
1533,2085
1505,2059
1542,2095
1522,2070
1506,2055
1536,2087
1505,2059
1546,2095
1521,2076
1505,2056
1528,2087
1506,2060
1545,2096
1517,2081
1505,2056
1526,2090
1508,2060
1544,2093
1516,2081
1505,2054
1533,2092
1506,2059
1543,2092
1520,2078
1504,2055
1536,2095
1508,2060
1545,2094
1526,2075
1505,2056
1534,2100
1506,2061
1543,2094
1528,2076
1504,2054
1537,2105
1507,2061
1542,2095
1522,2075
1504,2054
1539,2106
1509,2062
1542,2070
1525,2072
1505,2055
1543,2100
1506,2065
1544,2056
1523,2071
1505,2055
1549,2094
1510,2063
1543,2055
1543,2055
1521,2069
1506,2058
1551,2088
1510,2063
1538,2055
1522,2078
1505,2056
1550,2082
1510,2063
1510,2054
1520,2088
1506,2058
1543,2080
1510,2065
1504,2054
1518,2094
1504,2057
1535,2086
1510,2070
1503,2056
1520,2088
1505,2059
1531,2095
1510,2076
1505,2055
1533,2087
1507,2057
1527,2100
1512,2076
1504,2054
1538,2086
1506,2058
1532,2102
1513,2072
1503,2057
1537,2079
1506,2058
1538,2101
1521,2073
1505,2057
1534,2085
1505,2059
1546,2096
1523,2070
1505,2055
1538,2090
1506,2061
1548,2097
1548,2097
1522,2076
1502,2055
1530,2091
1505,2060
1548,2097
1519,2081
1505,2058
1525,2090
1507,2059
1544,2093
1518,2083
1504,2055
1532,2094
1508,2060
1543,2095
1519,2080
1504,2056
1536,2097
1508,2061
1544,2095
1526,2077
1505,2057
1536,2102
1507,2062
1542,2095
1527,2077
1504,2055
1535,2104
1507,2064
1539,2096
1527,2078
1503,2055
1538,2106
1508,2062
1542,2076
1525,2074
1505,2058
1542,2104
1508,2064
1544,2054
1523,2074
1504,2055
1549,2097
1508,2064
1543,2055
1524,2072
1505,2057
1554,2090
1509,2063
1542,2054
1521,2077
1505,2057
1552,2085
1511,2063
1514,2055
1521,2086
1504,2057
1546,2081
1511,2064
1504,2055
1521,2096
1521,2096
1506,2058
1538,2084
1512,2069
1503,2055
1517,2091
1505,2059
1534,2091
1511,2076
1503,2055
1526,2088
1505,2058
1530,2097
1510,2077
1506,2055
1536,2089
1505,2057
1527,2101
1512,2074
1505,2055
1541,2082
1506,2058
1530,2101
1518,2071
1503,2055
1536,2081
1506,2059
1540,2097
1524,2071
1504,2056
1535,2089
1505,2059
1547,2097
1521,2072
1505,2055
1535,2090
1505,2061
1548,2097
1520,2077
1504,2055
1529,2091
1506,2059
1547,2096
1519,2081
1505,2056
1527,2092
1508,2059
1543,2094
1515,2079
1504,2056
1534,2092
1508,2062
1508,2062
1544,2095
1518,2077
1505,2055
1536,2095
1507,2060
1544,2094
1524,2076
1505,2057
1537,2100
1508,2062
1542,2094
1529,2079
1504,2056
1535,2105
1508,2061
1542,2096
1523,2075
1505,2057
1538,2106
1507,2063
1541,2075
1523,2076
1504,2055
1542,2101
1510,2064
1542,2054
1525,2071
1504,2058
1547,2097
1509,2064
1542,2054
1522,2073
1505,2058
1554,2090
1509,2065
1542,2054
1524,2078
1505,2057
1551,2084
1512,2063
1516,2054
1522,2088
1504,2056
1548,2081
1510,2063
1504,2055
1519,2097
1506,2057
1543,2084
1512,2069
1505,2056
1520,2093
1505,2058
1537,2091
1511,2075
1504,2056
1519,2088
1506,2057
1530,2095
1513,2075
1513,2075
1505,2056
1534,2088
1505,2059
1527,2100
1512,2074
1504,2055
1540,2087
1507,2059
1530,2101
1514,2075
1503,2055
1539,2080
1505,2058
1539,2098
1523,2072
1504,2054
1536,2084
1505,2059
1544,2096
1523,2071
1503,2056
1537,2088
1505,2060
1549,2096
1522,2074
1505,2057
1529,2089
1507,2060
1548,2097
1519,2081
1505,2057
1526,2091
1507,2060
1545,2095
1518,2080
1505,2057
1533,2092
1508,2059
1545,2094
1518,2077
1505,2056
1534,2095
1508,2060
1545,2096
1522,2077
1505,2057
1535,2098
1506,2060
1506,2060
1543,2096
1527,2076
1504,2057
1537,2106
1508,2063
1528,2079
1505,2057
1538,2108
1509,2063
1542,2082
1524,2076
1524,2076
1504,2058
1542,2103
1507,2063
1543,2057
1522,2075
1505,2057
1547,2097
1509,2062
1544,2057
1523,2072
1504,2057
1553,2091
1511,2064
1542,2056
1522,2074
1506,2058
1551,2086
1511,2064
1519,2056
1521,2085
1505,2059
1546,2083
1512,2065
1505,2057
1521,2094
1507,2059
1541,2084
1511,2069
1505,2058
1516,2091
1506,2058
1537,2093
1512,2074
1505,2058
1524,2088
1505,2058
1528,2097
1512,2076
1503,2055
1538,2091
1505,2058
1528,2100
1514,2075
1504,2056
1543,2084
1507,2058
1534,2103
1516,2073
1516,2073
1505,2057
1535,2080
1507,2059
1542,2099
1524,2070
1505,2055
1537,2090
1507,2060
1545,2095
1522,2071
1505,2058
1533,2090
1506,2060
1548,2098
1522,2079
1506,2058
1527,2090
1507,2062
1547,2094
1518,2082
1505,2056
1530,2093
1507,2060
1544,2094
1516,2080
1505,2056
1537,2093
1510,2060
1545,2096
1519,2077
1506,2057
1536,2096
1508,2060
1546,2095
1528,2076
1505,2057
1536,2101
1508,2063
1542,2095
1527,2078
1505,2057
1539,2107
1509,2064
1540,2090
1526,2076
1505,2058
1542,2106
1508,2062
1542,2066
1524,2073
1506,2058
1542,2100
1508,2064
1543,2055
1523,2072
1505,2056
1550,2094
1509,2064
1545,2056
1524,2073
1524,2073
1506,2058
1553,2087
1510,2063
1540,2056
1523,2080
1506,2059
1552,2084
1512,2066
1511,2054
1523,2086
1505,2057
1546,2082
1513,2067
1505,2054
1519,2096
1506,2058
1538,2086
1513,2073
1504,2055
1521,2091
1506,2058
1534,2096
1511,2077
1505,2057
1528,2088
1507,2058
1528,2100
1511,2077
1504,2057
1537,2089
1506,2057
1529,2101
1515,2075
1506,2058
1540,2083
1507,2059
1538,2099
1522,2072
1505,2056
1535,2082
1507,2061
1542,2096
1525,2069
1504,2057
1538,2089
1507,2060
1549,2097
1549,2097
1521,2074
1504,2056
1533,2090
1506,2060
1549,2097
1518,2080
1505,2056
1527,2091
1506,2059
1548,2095
1516,2081
1505,2057
1528,2092
1507,2059
1543,2094
1517,2082
1505,2056
1534,2095
1507,2061
1542,2094
1522,2078
1506,2057
1536,2097
1508,2062
1545,2093
1526,2078
1506,2056
1535,2103
1509,2063
1543,2096
1529,2078
1504,2055
1538,2108
1508,2062
1542,2094
1528,2078
1504,2058
1541,2109
1511,2063
1543,2069
1525,2077
1506,2058
1545,2101
1509,2065
1543,2055
1525,2072
1505,2058
1549,2096
1511,2064
1544,2057
1525,2073
1505,2057
1554,2090
1510,2066
1544,2056
1525,2077
1506,2059
1552,2084
1512,2065
1517,2056
1521,2088
1521,2088
1507,2058
1549,2080
1511,2065
1504,2056
1519,2094
1504,2056
1543,2084
1513,2068
1505,2055
1519,2093
1504,2056
1537,2090
1512,2077
1504,2056
1524,2090
1507,2060
1531,2097
1512,2077
1503,2056
1531,2090
1507,2059
1528,2102
1512,2077
1506,2057
1542,2087
1506,2059
1531,2103
1515,2074
1504,2056
1538,2080
1507,2059
1539,2098
1521,2072
1505,2057
1535,2083
1507,2061
1545,2098
1522,2070
1506,2057
1538,2089
1507,2061
1547,2097
1523,2075
1505,2056
1532,2092
1506,2060
1548,2098
1520,2081
1506,2056
1506,2056
1526,2092
1507,2060
1545,2095
1517,2083
1506,2057
1532,2092
1508,2060
1544,2095
1517,2079
1505,2057
1536,2094
1508,2063
1546,2094
1523,2080
1505,2058
1537,2101
1508,2061
1545,2097
1528,2077
1507,2058
1537,2104
1509,2063
1541,2097
1529,2078
1506,2058
1538,2106
1510,2064
1539,2086
1528,2077
1507,2060
1542,2106
1509,2063
1544,2062
1523,2078
1504,2057
1545,2099
1509,2065
1543,2057
1524,2074
1506,2059
1551,2093
1512,2066
1543,2055
1527,2073
1505,2058
1554,2087
1512,2065
1533,2056
1524,2084
1505,2058
1551,2083
1513,2064
1507,2057
1521,2093
1507,2058
1547,2083
1514,2068
1505,2057
1517,2095
1506,2058
1506,2058
1538,2091
1513,2075
1506,2057
1525,2088
1507,2059
1532,2099
1511,2077
1505,2058
1533,2092
1507,2058
1528,2100
1515,2077
1505,2056
1540,2086
1506,2059
1530,2102
1517,2074
1507,2059
1539,2080
1506,2058
1538,2099
1523,2071
1505,2057
1534,2086
1506,2060
1547,2097
1523,2072
1505,2057
1538,2090
1507,2061
1549,2097
1522,2078
1505,2056
1528,2089
1508,2061
1549,2096
1520,2081
1507,2058
1528,2090
1508,2063
1542,2094
1518,2080
1505,2058
1549,2096
1518,2083
1506,2057
1536,2096
1509,2060
1544,2094
1524,2078
1506,2056
1536,2101
1507,2060
1544,2095
1531,2079
1506,2057
1537,2105
1509,2063
1541,2096
1528,2079
1506,2058
1541,2107
1509,2063
1542,2073
1525,2077
1505,2057
1546,2105
1508,2063
1544,2057
1524,2075
1505,2059
1550,2096
1511,2066
1545,2056
1526,2072
1507,2059
1553,2091
1511,2067
1537,2055
1524,2083
1505,2058
1553,2084
1511,2063
1509,2056
1522,2094
1505,2059
1548,2084
1511,2065
1506,2056
1519,2092
1507,2060
1540,2095
1514,2071
1505,2057
1523,2090
1507,2060
1531,2099
1513,2078
1505,2057
1537,2093
1508,2060
1529,2101
1529,2101
1513,2076
1507,2058
1540,2086
1507,2060
1534,2102
1517,2074
1506,2057
1537,2080
1507,2061
1540,2098
1524,2069
1506,2059
1538,2090
1508,2062
1549,2097
1521,2073
1506,2056
1535,2093
1507,2061
1550,2098
1521,2080
1507,2058
1528,2092
1508,2061
1548,2096
1521,2085
1506,2057
1530,2094
1509,2063
1543,2095
1520,2084
1507,2057
1538,2096
1508,2061
1545,2094
1523,2079
1507,2058
1539,2101
1509,2062
1544,2097
1529,2077
1507,2058
1538,2108
1508,2063
1542,2096
1529,2079
1506,2056
1540,2109
1508,2064
1508,2064
1543,2081
1526,2078
1507,2058
1544,2105
1509,2065
1544,2057
1524,2073
1507,2058
1550,2098
1511,2064
1545,2058
1521,2073
1506,2059
1553,2091
1511,2065
1541,2057
1525,2079
1507,2058
1553,2086
1512,2064
1510,2057
1523,2092
1506,2057
1548,2084
1512,2068
1506,2055
1521,2097
1507,2060
1540,2089
1511,2075
1506,2057
1522,2091
1508,2060
1532,2096
1512,2078
1505,2057
1533,2092
1508,2060
1530,2103
1512,2077
1505,2057
1541,2088
1507,2058
1535,2103
1517,2076
1507,2060
1537,2079
1507,2060
1541,2100
1523,2071
1507,2058
1538,2087
1508,2061
1547,2096
1524,2072
1507,2059
1536,2091
1506,2062
1549,2097
1549,2097
1524,2077
1507,2058
1528,2090
1507,2060
1548,2097
1519,2082
1506,2059
1525,2090
1508,2061
1545,2094
1516,2083
1507,2059
1534,2094
1510,2062
1545,2095
1520,2078
1507,2059
1537,2097
1507,2061
1546,2096
1528,2079
1505,2057
1539,2105
1510,2063
1543,2097
1533,2080
1506,2058
1539,2109
1509,2062
1543,2094
1527,2080
1506,2059
1541,2108
1509,2065
1542,2067
1527,2076
1507,2058
1546,2103
1508,2065
1546,2056
1525,2076
1508,2060
1550,2094
1512,2066
1545,2057
1524,2076
1507,2058
1555,2088
1512,2065
1512,2065
1533,2056
1524,2083
1506,2059
1552,2082
1513,2066
1508,2056
1520,2098
1507,2058
1545,2083
1513,2068
1506,2057
1520,2095
1505,2059
1538,2090
1512,2075
1506,2057
1522,2091
1507,2060
1531,2100
1513,2080
1505,2057
1538,2090
1506,2059
1530,2100
1513,2077
1504,2056
1543,2085
1506,2060
1533,2102
1519,2075
1505,2057
1539,2079
1507,2059
1541,2098
1524,2072
1506,2057
1537,2087
1508,2063
1548,2099
1522,2073
1506,2057
1537,2092
1508,2062
1551,2099
1523,2079
1506,2058
1529,2091
1508,2061
1550,2097
1521,2085
1506,2058
1531,2093
1507,2061
1545,2096
1516,2082
1507,2057
1536,2095
1509,2064
1546,2095
1519,2079
1506,2057
1506,2057
1537,2100
1508,2062
1545,2096
1529,2081
1507,2058
1538,2105
1507,2064
1544,2096
1530,2079
1507,2057
1539,2108
1510,2065
1542,2091
1528,2078
1507,2059
1541,2106
1510,2065
1543,2063
1525,2075
1508,2060
1546,2101
1511,2067
1545,2057
1527,2076
1505,2057
1553,2093
1510,2065
1546,2056
1525,2075
1507,2060
1555,2090
1510,2065
1534,2056
1523,2084
1507,2059
1551,2082
1511,2066
1508,2056
1521,2096
1508,2060
1543,2082
1513,2069
1505,2058
1521,2093
1508,2059
1537,2091
1513,2075
1513,2075
1505,2056
1524,2092
1508,2061
1513,2079
1506,2058
1534,2094
1508,2061
1531,2104
1512,2077
1507,2058
1543,2091
1507,2059
1507,2059
1533,2104
1518,2075
1506,2059
1540,2080
1508,2061
1542,2099
1521,2071
1507,2059
1537,2086
1509,2062
1547,2097
1523,2074
1506,2060
1539,2093
1509,2064
1551,2099
1523,2079
1508,2061
1531,2093
1508,2062
1548,2098
1521,2085
1507,2059
1529,2093
1511,2063
1545,2095
1519,2081
1509,2060
1537,2094
1511,2063
1545,2095
1522,2081
1508,2060
1538,2098
1511,2063
1545,2097
1531,2079
1506,2058
1540,2105
1510,2064
1543,2098
1531,2078
1507,2059
1541,2110
1509,2064
1542,2085
1527,2078
1527,2078
1508,2058
1544,2105
1510,2066
1545,2059
1526,2076
1506,2059
1549,2098
1512,2067
1545,2058
1526,2076
1508,2058
1554,2093
1510,2065
1542,2057
1525,2081
1506,2059
1554,2086
1513,2067
1510,2057
1523,2092
1508,2061
1547,2083
1514,2069
1507,2058
1519,2098
1507,2059
1539,2090
1513,2074
1506,2058
1522,2089
1508,2059
1533,2097
1514,2078
1506,2058
1533,2093
1507,2060
1530,2102
1512,2076
1508,2058
1543,2088
1509,2061
1531,2102
1518,2076
1507,2057
1540,2081
1508,2061
1541,2099
1523,2073
1506,2057
1536,2090
1509,2062
1548,2098
1522,2072
1507,2058
1541,2093
1509,2064
1549,2098
1522,2079
1508,2059
1530,2093
1508,2063
1547,2097
1547,2097
1520,2084
1506,2058
1531,2094
1510,2063
1546,2094
1517,2084
1507,2059
1538,2095
1510,2062
1545,2096
1523,2080
1507,2058
1539,2101
1509,2062
1546,2098
1528,2078
1507,2059
1539,2107
1510,2063
1544,2098
1531,2078
1507,2060
1539,2109
1508,2066
1544,2092
1526,2078
1507,2059
1543,2107
1510,2065
1546,2063
1527,2078
1506,2060
1550,2102
1510,2065
1545,2057
1525,2074
1507,2060
1556,2095
1513,2067
1546,2057
1526,2077
1507,2059
1556,2088
1511,2066
1520,2058
1524,2088
1508,2059
1549,2084
1549,2084
1513,2067
1506,2057
1521,2097
1508,2060
1542,2087
1512,2072
1507,2058
1520,2096
1506,2058
1536,2095
1511,2078
1507,2058
1530,2093
1507,2060
1529,2102
1513,2079
1506,2058
1543,2093
1506,2059
1531,2104
1517,2076
1505,2058
1545,2083
1508,2060
1538,2101
1521,2073
1507,2058
1536,2083
1508,2061
1546,2098
1524,2072
1508,2058
1539,2091
1508,2063
1550,2098
1522,2075
1506,2057
1536,2092
1509,2062
1551,2100
1520,2082
1506,2058
1528,2093
1509,2063
1546,2097
1518,2086
1506,2059
1535,2095
1510,2063
1547,2094
1520,2082
1506,2057
1538,2098
1510,2063
1546,2098
1526,2079
1507,2059
1538,2105
1509,2062
1545,2098
1533,2080
1533,2080
1507,2059
1541,2110
1510,2064
1544,2098
1527,2080
1508,2058
1542,2109
1510,2066
1546,2069
1526,2076
1507,2059
1547,2102
1511,2066
1548,2058
1526,2073
1508,2059
1554,2096
1512,2066
1547,2058
1526,2075
1507,2061
1558,2090
1512,2066
1529,2059
1522,2089
1508,2060
1552,2083
1512,2068
1507,2058
1522,2098
1507,2059
1545,2087
1513,2070
1507,2059
1523,2095
1508,2059
1537,2096
1514,2078
1507,2058
1529,2092
1509,2061
1532,2101
1512,2079
1507,2057
1540,2091
1508,2061
1530,2103
1516,2076
1507,2059
1507,2059
1544,2087
1509,2062
1536,2101
1520,2075
1506,2058
1536,2082
1508,2062
1544,2099
1523,2073
1508,2058
1542,2091
1507,2062
1550,2098
1524,2077
1506,2059
1537,2093
1508,2063
1551,2099
1522,2082
1508,2059
1526,2092
1510,2063
1548,2097
1520,2085
1507,2059
1535,2095
1512,2063
1544,2094
1520,2085
1507,2059
1540,2097
1510,2064
1547,2098
1526,2079
1508,2058
1539,2104
1509,2064
1547,2099
1529,2081
1507,2059
1539,2110
1510,2065
1543,2100
1530,2077
1506,2058
1542,2109
1511,2064
1544,2077
1526,2078
1507,2061
1546,2104
1510,2068
1546,2057
1526,2078
1506,2058
1553,2098
1513,2069
1549,2057
1526,2077
1507,2060
1507,2060
1557,2091
1512,2069
1541,2058
1525,2085
1507,2059
1554,2086
1513,2067
1511,2059
1525,2091
1508,2060
1547,2087
1514,2068
1508,2059
1523,2099
1510,2060
1538,2092
1513,2074
1506,2058
1528,2091
1510,2061
1534,2099
1512,2081
1507,2058
1534,2094
1508,2061
1531,2105
1515,2079
1507,2059
1545,2090
1508,2061
1537,2104
1520,2077
1506,2058
1540,2083
1507,2062
1544,2100
1524,2072
1507,2058
1538,2090
1508,2062
1548,2099
1525,2074
1507,2060
1537,2092
1509,2065
1550,2100
1523,2081
1505,2060
1530,2092
1511,2064
1550,2097
1521,2088
1506,2059
1532,2096
1532,2096
1511,2063
1547,2096
1518,2084
1505,2059
1537,2099
1512,2065
1548,2099
1526,2081
1508,2061
1542,2105
1513,2066
1549,2107
1532,2080
1507,2061
1543,2114
1512,2066
1549,2104
1531,2082
1508,2061
1544,2116
1511,2066
1551,2088
1528,2080
1509,2062
1549,2114
1511,2067
1552,2060
1528,2077
1509,2062
1557,2104
1512,2069
1552,2057
1526,2076
1506,2062
1560,2094
1511,2067
1546,2059
1526,2083
1508,2061
1557,2086
1513,2068
1508,2057
1521,2099
1507,2061
1550,2088
1512,2070
1507,2059
1519,2099
1508,2060
1541,2098
1510,2079
1506,2060
1525,2093
1509,2060
1533,2104
1511,2078
1507,2060
1542,2096
1508,2061
1531,2110
1512,2077
1505,2059
1544,2085
1508,2062
1539,2108
1539,2108
1523,2075
1506,2059
1541,2090
1506,2061
1552,2103
1525,2072
1505,2058
1541,2096
1506,2063
1558,2105
1523,2083
1506,2058
1529,2095
1507,2061
1555,2104
1520,2089
1507,2058
1534,2099
1510,2063
1549,2101
1519,2086
1504,2058
1539,2100
1510,2064
1551,2104
1529,2083
1505,2058
1543,2109
1511,2065
1550,2106
1531,2081
1508,2060
1543,2113
1510,2066
1548,2102
1529,2083
1507,2059
1547,2115
1510,2067
1551,2064
1529,2076
1508,2059
1554,2108
1511,2067
1554,2059
1525,2075
1509,2061
1561,2097
1513,2069
1551,2058
1526,2082
1509,2062
1562,2090
1513,2066
1513,2061
1525,2099
1509,2062
1554,2090
1516,2071
1510,2062
1522,2102
1510,2064
1543,2100
1514,2080
1509,2063
1530,2096
1530,2096
1511,2064
1535,2110
1515,2083
1510,2063
1542,2099
1511,2065
1536,2115
1516,2081
1509,2064
1545,2089
1511,2067
1546,2113
1526,2079
1510,2065
1542,2093
1511,2067
1555,2109
1529,2076
1511,2064
1546,2101
1510,2067
1560,2110
1526,2084
1511,2064
1532,2100
1512,2068
1559,2110
1524,2092
1510,2063
1535,2102
1512,2066
1554,2106
1522,2088
1512,2065
1542,2104
1513,2067
1555,2108
1526,2087
1513,2065
1542,2110
1513,2066
1555,2112
1537,2085
1512,2065
1545,2117
1514,2070
1553,2111
1533,2087
1510,2064
1548,2120
1515,2071
1554,2090
1532,2082
1510,2065
1552,2116
1513,2070
1513,2070
1558,2065
1529,2081
1511,2065
1559,2108
1514,2072
1557,2063
1529,2080
1512,2065
1564,2098
1515,2071
1549,2063
1528,2088
1512,2066
1563,2093
1515,2069
1517,2063
1526,2100
1511,2065
1555,2089
1516,2072
1510,2063
1523,2102
1510,2064
1548,2097
1518,2076
1510,2062
1526,2097
1512,2063
1542,2108
1514,2081
1510,2061
1537,2099
1510,2064
1537,2111
1516,2082
1510,2062
1548,2096
1510,2061
1539,2113
1519,2079
1509,2063
1542,2086
1510,2064
1547,2109
1526,2076
1508,2061
1543,2095
1509,2064
1554,2105
1528,2076
1507,2058
1540,2099
1507,2063
1558,2107
1523,2082
1508,2059
1527,2099
1509,2063
1554,2103
1522,2088
1507,2060
1536,2101
1509,2064
1550,2102
1519,2086
1519,2086
1509,2061
1543,2103
1512,2064
1553,2108
1527,2083
1508,2062
1541,2108
1510,2065
1554,2107
1531,2085
1509,2061
1543,2116
1509,2066
1551,2107
1533,2084
1507,2060
1545,2120
1512,2069
1552,2082
1530,2080
1509,2063
1550,2114
1511,2069
1554,2062
1529,2081
1507,2061
1559,2105
1512,2069
1555,2059
1528,2077
1508,2061
1563,2097
1513,2068
1541,2057
1525,2086
1508,2061
1559,2089
1516,2069
1510,2063
1528,2105
1521,2076
1568,2114
1561,2126
1575,2142
1615,2202
1633,2207
1690,2272
1722,2314
1776,2370
1861,2471
1944,2563
2071,2709
2189,2842
2306,2970
2306,2970
2491,3166
2723,3423
2831,3556
2866,3599
2889,3614
2723,3436
2495,3184
2195,2844
1936,2553
1936,2553
1825,2423
1783,2382
1899,2500
2048,2664
2275,2918
2553,3227
2646,3338
2636,3324
2515,3197
2430,3103
2408,3081
2330,2991
2398,3060
2374,3033
2395,3041
2482,3134
2571,3215
2631,3269
2527,3175
2447,3078
2216,2858
2088,2717
2005,2625
1853,2478
1784,2395
1753,2369
1695,2298
1718,2322
1694,2294
1673,2271
1697,2308
1663,2258
1682,2278
1667,2258
1654,2248
1686,2293
1662,2259
1692,2280
1679,2271
1669,2263
1720,2323
1704,2301
1753,2319
1733,2329
1691,2283
1703,2290
1660,2249
1681,2241
1660,2244
1631,2217
1651,2227
1625,2211
1638,2202
1628,2214
1610,2191
1623,2193
1608,2191
1608,2191
1621,2202
1636,2232
1639,2235
1678,2271
1675,2286
1672,2285
1689,2313
1686,2302
1702,2309
1690,2305
1693,2306
1716,2337
1720,2338
1740,2364
1739,2367
1742,2362
1767,2394
1791,2417
1869,2509
1954,2600
1961,2615
1918,2573
1861,2519
1852,2517
1847,2516
1860,2541
1902,2596
1925,2638
1986,2725
2065,2836
2194,3022
2431,3345
2752,3803
3440,4758
5116,7036
9649,12783
21505,27178
33513,41182
55242,6091
4335,29794
6092,22475
39769,63437
885,24576
6770,33370
11519,40019
62926,22061
48619,5727
48378,4794
6092,30666
29608,55490
32128,55260
31149,52076
27582,46615
19660,36697
12805,28671
11424,26437
17906,33307
29032,45478
32555,50232
28218,46547
26050,44922
27107,46451
29516,49457
29516,49457
26304,46292
17888,37403
11713,30646
8015,26729
4991,23142
4666,22440
7807,25722
11830,29772
21470,40083
23602,42904
24104,43917
22632,42590
22118,42105
22247,42272
23966,44137
25218,45458
25569,46317
25795,47850
26649,49971
23354,46636
25507,49191
39511,65535
26689,53248
14653,34345
14554,34795
14619,35922
13566,35148
11314,32530
12380,34082
13996,36410
14788,37202
14676,37141
15176,37706
15872,38127
16544,38697
17204,39199
16731,37921
17085,36603
18884,38419
19818,39973
18165,39029
9504,28764
10242,26098
14038,31258
6268,21815
63501,13046
54904,3809
51905,1779
51276,2091
51020,644
52891,2698
53320,3364
54448,4794
56827,7906
57566,10371
55156,10458
55156,10458
50267,6738
47167,3589
45750,2145
42995,64535
39048,59900
36709,56956
35222,54955
33427,52677
32605,51557
32019,50561
31868,50357
31512,49841
31245,49487
31065,49260
31567,49981
32414,51178
32832,51604
33994,52987
34455,53493
35341,54555
36236,55775
36773,56517
37009,57014
36997,57026
36079,55838
35112,54420
35809,55284
37418,57327
39512,59746
39799,60176
39002,59200
38444,58480
39289,59510
43786,65503
51060,9245
56430,15752
57929,17638
60650,21042
63521,25630
63472,25701
62589,24428
61611,22697
59899,20781
60211,21909
64795,29444
13772,47920
52764,65535
45056,65535
18241,38536
4482,19194
57530,2419
48141,57082
41339,49506
41145,48988
50977,61620
65375,15824
51318,63488
42094,50084
47764,57246
62416,10725
8982,26553
19269,37229
21998,39497
18265,34693
19582,36847
19582,36847
23478,42223
25675,45141
25185,44939
23278,42252
15105,31411
5324,18582
2654,15022
3126,15630
10130,24302
21278,38517
24896,44814
24326,45057
24448,45365
24599,45441
24107,45174
23984,45028
23747,44887
23203,44795
22935,44475
22614,44103
20643,42891
17217,39996
14123,37203
12410,36361
8577,32357
10797,34852
9861,33854
9824,33685
23389,49598
28493,60971
28891,61985
27707,60904
32414,65535
36243,65535
34830,65535
35066,65535
34036,65535
32084,65201
30954,63510
31966,64324
29066,61437
25379,57360
24547,56283
25197,56748
25145,56805
22684,54256
23065,54555
23218,54683
22993,54347
21426,52520
17798,48207
17798,48207
14768,44669
12662,42267
13793,43312
13386,42918
12070,41375
11224,40438
11544,40719
9693,38600
7927,36469
7227,35617
7052,35328
7052,35328
7290,35604
8945,37471
10496,39091
12025,40604
14333,43085
14461,42826
13499,41550
12197,39920
10082,36986
10027,36876
10530,37343
11280,38088
10988,37226
12745,38742
12882,38983
12556,38556
16512,42664
22517,49037
21843,48417
15140,41117
16532,42401
19534,45683
19925,45829
19471,45048
20704,46256
22789,48434
26106,52067
29281,55616
32467,58958
36540,62894
37597,63618
37569,63749
37586,64775
35545,62453
35122,60204
33007,58455
28021,53006
23417,47985
19950,44168
15487,39484
10843,34611
10077,33866
5459,28727
3541,26500
2402,25337
3102,26138
5243,28561
8149,31641
14599,38722
19956,44509
18931,43674
16881,41726
22476,48210
22476,48210
33100,55419
19150,39140
19150,39140
17232,39085
21168,44819
38861,65535
39768,65535
37478,65535
36571,65535
35436,65535
33289,65535
36314,65535
20483,52367
18242,49615
18479,49930
19451,51179
16525,47642
27533,56625
23151,51777
25845,53809
14927,42879
3733,31457
62096,24328
60678,23198
63579,27467
65472,30007
3402,33878
8085,38474
16408,47123
18818,46841
15533,40675
9708,30700
3604,21681
57960,6144
52235,61412
51375,62039
45453,57740
43353,54739
42445,53347
42696,53090
44590,55077
52241,64137
61788,10190
2205,16913
6063,20815
22476,40978
39373,63901
39133,64587
41773,65535
43121,65535
35295,63525
23019,49406
18149,43697
15548,40919
15829,41447
14197,39762
20222,47306
20472,47838
21679,48944
27985,55544
28383,56546
24564,54008
27656,58029
34761,65396
43129,65535
47102,65535
45896,65535
40270,65535
40270,65535
33098,59623
36626,61130
36922,60902
39821,62772
39714,63480
40266,65514
39399,64493
40306,65535
40973,65535
37046,64890
33545,61541
28061,55597
25930,52994
24157,50429
21824,46293
16091,39129
13879,37669
11345,34410
9499,32422
11006,34481
6293,29181
2150,21849
16503,35492
13400,35306
7146,28641
827,21040
64274,18482
63743,17963
64389,18784
65200,19764
522,20764
2953,23575
6073,27457
10454,32377
13105,35525
15039,38225
15699,39062
17989,41751
18816,43433
11585,37911
6269,32017
4303,29886
1922,26447
64169,21346
60142,15991
55437,10265
51873,5516
49504,2398
48224,378
47695,65031
46932,63979
47156,64047
47126,63900
45780,62410
45780,62410
43616,59828
41445,57311
39776,55061
38749,53837
38138,52979
38075,52737
37817,52233
37819,52068
37834,51860
38957,53024
39305,53307
39668,53683
39916,53945
40079,54170
41113,55322
42442,57046
42800,57650
42187,57127
42148,57332
41999,57356
41454,56841
41077,56548
39978,55362
39286,54705
39062,54592
38569,53974
38662,54140
38580,54275
38662,54564
38602,54416
38444,54058
38527,54142
38709,54360
39272,54911
40339,55886
41057,56658
41529,57028
41672,57140
41683,56985
41996,57177
41587,56724
41527,56636
41814,56973
41620,56767
41237,56339
40032,54921
39432,54242
39282,54058
39187,53917
39168,53878
38462,53034
37159,51438
36429,50540
36108,50173
35486,49396
35075,48898
34666,48407
34461,48149
34371,48059
34374,48049
34503,48208
34736,48487
34942,48732
35088,48916
35295,49175
35325,49204
35304,49183
35344,49237
35344,49237
35340,49235
35278,49138
35134,48957
34984,48771
34976,48743
34947,48708
34946,48705
34851,48575
34668,48345
34527,48150
34450,48054
34399,47997
34177,47737
33904,47418
33689,47132
33703,47140
33747,47197
33790,47257
33621,47069
33290,46752
32683,45872
31798,44792
31207,44037
30892,43596
30859,43564
30997,43723
31257,44049
31494,44327
31655,44528
31765,44665
32091,45050
32781,45882
33305,46484
33188,46369
33040,46202
33237,46451
33467,46729
33861,47184
34438,47876
34834,48354
34754,48256
34180,47585
33669,47003
33322,46627
32693,45897
32341,45487
32246,45385
32183,45297
32183,45297
32313,45443
32568,45736
32161,45254
32027,45105
31922,45013
31751,44818
31906,45044
32198,45425
32514,45825
32934,46365
33488,47061
34064,47806
34064,47806
34338,48167
33775,47538
32827,46362
32346,45778
32086,45445
32127,45495
32462,45899
32794,46311
33170,46768
34333,48190
58273,17331
58291,17300
58289,17297
58273,17284
58261,17279
58248,17251
58220,17252
58211,17224
58210,17246
58184,17287
58190,17293
58197,17293
58194,17295
58188,17251
58184,17230
58194,17259
58189,17328
58200,17324
58191,17340
58211,17266
58207,17245
58221,17189
58219,17172
58218,17161
58222,17159
58224,17164
58228,17211
58217,17277
58216,17311
58200,17329
58190,17337
58132,17343
58141,17323
58138,17329
58162,17283
58183,17261
58190,17256
58118,17230
58097,17211
58121,17216
58151,17239
58151,17227
58188,17228
58176,17219
58175,17209
58139,17220
58144,17234
58126,17232
58099,17245
58101,17235
58110,17258
58139,17264
58175,17237
58178,17271
58195,17272
58181,17282
58193,17261
58175,17267
58172,17242
58171,17244
58161,17165
58148,17188
58147,17183
58159,17216
58141,17253
58151,17219
58142,17148
58158,17123
58164,17151
58161,17194
58173,17194
58156,17234
58179,17216
58176,17204
58172,17172
58153,17169
58163,17146
58161,17114
58153,17129
58148,17140
58145,17171
58155,17194
58147,17218
58149,17217
58157,17223
58151,17234
58153,17212
58133,17212
58141,17176
58141,17208
58142,17173
58100,17191
58065,17189
58063,17180
58082,17197
58087,17199
58138,17188
58090,17200
58036,17186
58027,17227
58063,17198
58115,17209
58143,17215
58154,17208
58113,17192
58120,17207
58100,17192
58070,17200
58050,17196
58059,17185
58063,17195
58089,17191
58088,17191
58089,17193
58089,17202
58086,17193
58061,17166
58031,17162
58002,17162
57986,17180
57987,17136
57998,17086
57983,17100
57939,17105
57850,17130
57785,17175
57776,17134
57783,17046
57833,17049
57865,17070
57923,17123
57954,17170
57979,17181
57978,17138
58014,17136
57966,17110
57952,17081
57943,17072
57968,17071
57954,17081
57997,17100
57946,17112
57922,17095
57911,17099
57955,17082
57998,17089
58019,17050
58019,17004
58001,16972
57994,16969
57976,16987
57961,16980
57919,16909
57923,16817
57920,16754
57948,16740
57948,16761
57990,16790
58007,16842
57994,16914
57985,16928
57958,16947
57922,16964
57909,16996
57904,16946
57876,16941
57869,16916
57886,16923
57903,16956
57884,16992
57868,16945
57864,16904
57905,16886
57947,16925
57991,16975
57978,17018
57985,17018
57958,17001
57960,16994
57904,16959
57895,16925
57883,16892
57891,16886
57914,16913
57950,16900
57993,16933
57997,16967
58023,16992
58013,16986
57973,16974
57945,16936
57965,16913
57996,16878
58018,16862
58018,16844
58044,16854
58021,16858
57993,16863
58014,16855
58056,16834
58095,16837
58069,16857
58055,16917
58037,16970
58053,16975
58059,16959
58008,16945
58022,16932
58003,16874
58015,16866
58044,16842
58056,16877
58079,16899
58060,16946
58045,16986
58017,16997
57996,17022
57983,17022
57977,16970
57969,16946
57973,16948
57967,16997
57964,17013
57957,17013
57959,17049
57958,17010
57968,17002
57965,17006
57970,17058
57969,17107
57986,17104
57973,17067
57990,17052
57996,17053
58008,17045
57973,17002
57967,17020
57953,16997
57957,17012
57961,17055
57966,17052
57955,17081
57938,17067
57912,17049
57819,17033
57815,17010
57818,16986
57824,16977
57877,16946
57866,16967
57843,16951
57833,16947
57833,16941
57859,16940
57876,16939
57924,16968
57944,16959
57923,16954
57913,16963
57893,16973
57867,16975
57856,16987
57852,16979
57836,17005
57838,16973
57843,16987
57869,16943
57868,16951
57864,16957
57851,16959
57844,16957
57836,16929
57820,16921
57802,16797
57780,16775
57772,16796
57770,16790
57777,16867
57773,16865
57777,16807
57776,16804
57783,16804
57787,16837
57779,16850
57787,16901
57786,16919
57785,16905
57804,16882
57792,16852
57796,16827
57783,16799
57797,16805
57786,16786
57774,16785
57782,16811
57770,16837
57768,16835
57763,16837
57763,16804
57753,16794
57737,16797
57737,16770
57742,16759
57728,16720
57699,16710
57659,16723
57639,16724
57652,16715
57672,16731
57717,16731
57684,16734
57646,16737
57656,16723
57679,16746
57719,16751
57746,16759
57751,16755
57740,16738
57707,16760
57735,16740
57719,16742
57708,16753
57719,16726
57719,16751
57749,16712
57783,16718
57822,16697
57830,16697
57826,16715
57806,16689
57806,16695
57787,16706
57796,16694
57777,16637
57780,16594
57800,16562
57790,16577
57798,16604
57794,16662
57787,16645
57780,16570
57770,16558
57782,16578
57781,16658
57754,16690
57723,16689
57733,16659
57722,16650
57750,16647
57765,16660
57742,16622
57694,16658
57674,16670
57699,16694
57719,16729
57719,16764
57727,16780
57684,16786
57617,16760
57575,16762
57568,16739
57528,16740
57517,16747
57491,16733
57513,16735
57532,16749
57566,16735
57593,16738
57617,16716
57627,16721
57629,16725
57618,16736
57606,16722
57616,16702
57620,16641
57631,16679
57618,16665
57593,16706
57600,16709
57578,16663
57585,16632
57582,16586
57581,16640
57583,16635
57581,16635
57593,16670
57592,16601
57603,16534
57609,16499
57626,16470
57650,16411
57694,16425
57710,16385
57756,16414
57750,16409
57772,16491
57771,16512
57792,16532
57804,16551
57803,16555
57814,16549
57818,16532
57825,16525
57788,16539
57788,16556
57795,16538
57796,16516
57833,16503
57869,16496
57846,16497
57786,16481
57801,16483
57820,16476
57886,16510
57899,16506
57932,16501
57891,16528
57883,16539
57875,16553
57859,16555
57831,16627
57834,16644
57845,16680
57865,16691
57873,16722
57889,16728
57882,16727
57899,16753
57887,16740
57863,16783
57864,16772
57846,16787
57850,16755
57849,16755
57839,16748
57825,16754
57835,16815
57824,16857
57829,16796
57819,16743
57837,16743
57835,16767
57837,16834
57831,16872
57852,16897
57836,16856
57847,16847
57845,16839
57835,16802
57815,16786
57826,16777
57822,16775
57825,16812
57819,16816
57824,16866
57816,16840
57806,16863
57815,16852
57790,16839
57777,16812
57774,16793
57772,16805
57772,16776
57759,16780
57729,16766
57689,16776
57692,16769
57689,16785
57715,16774
57730,16791
57686,16784
57643,16791
57599,16777
57638,16799
57647,16796
57670,16788
57683,16788
57660,16793
57638,16763
57630,16789
57617,16764
57599,16756
57617,16795
57627,16765
57655,16770
57691,16751
57719,16761
57731,16752
57721,16739
57716,16703
57690,16706
57679,16706
57674,16679
57664,16648
57659,16607
57655,16617
57643,16593
57652,16642
57646,16659
57665,16619
57667,16538
57660,16470
57646,16532
57652,16549
57641,16573
57640,16583
57610,16541
57597,16534
57584,16498
57593,16507
57616,16487
57602,16509
57553,16513
57559,16531
57590,16584
57590,16614
57633,16627
57629,16642
57624,16631
57581,16588
57575,16598
57547,16576
57544,16562
57538,16548
57547,16549
57566,16543
57575,16550
57617,16550
57662,16562
57653,16561
57662,16563
57631,16543
57624,16557
57602,16543
57602,16535
57596,16502
57600,16478
57580,16469
57586,16491
57607,16502
57580,16477
57608,16417
57618,16429
57612,16459
57625,16459
57608,16516
57628,16503
57628,16509
57617,16463
57625,16449
57608,16422
57616,16401
57603,16412
57592,16397
57584,16431
57572,16465
57580,16486
57580,16564
57612,16555
57591,16568
57551,16523
57541,16493
57565,16483
57625,16483
57640,16465
57652,16477
57639,16476
57635,16462
57629,16493
57571,16459
57581,16497
57565,16489
57571,16509
57597,16516
57615,16496
57638,16506
57644,16506
57648,16510
57638,16519
57629,16508
57612,16512
57591,16507
57578,16499
57571,16456
57575,16466
57566,16477
57562,16477
57558,16509
57578,16479
57568,16421
57580,16392
57574,16414
57573,16501
57569,16534
57574,16543
57585,16532
57594,16521
57579,16511
57586,16463
57601,16446
57589,16441
57596,16453
57596,16491
57608,16493
57599,16532
57599,16544
57598,16538
57603,16546
57570,16513
57553,16497
57556,16466
57572,16462
57592,16449
57613,16453
57573,16425
57537,16438
57534,16432
57571,16449
57618,16440
57642,16462
57633,16455
57633,16462
57632,16468
57623,16452
57585,16472
57586,16474
57582,16500
57573,16476
57598,16491
57631,16500
57645,16488
57649,16488
57650,16497
57633,16490
57617,16495
57606,16487
57590,16489
57586,16455
57583,16447
57565,16413
57584,16456
57602,16492
57596,16525
57574,16463
57584,16415
57589,16407
57595,16475
57601,16505
57603,16546
57599,16542
57607,16532
57588,16511
57591,16508
57592,16491
57586,16441
57593,16470
57587,16447
57585,16487
57572,16495
57528,16565
57511,16526
57509,16546
57525,16527
57546,16507
57541,16505
57458,16478
57433,16465
57443,16457
57478,16455
57500,16469
57500,16473
57513,16499
57497,16473
57474,16476
57474,16498
57427,16486
57408,16491
57392,16503
57407,16481
57389,16510
57421,16483
57439,16488
57466,16503
57471,16479
57456,16481
57473,16474
57439,16459
57437,16456
57426,16415
57422,16401
57419,16393
57415,16404
57419,16431
57411,16433
57397,16326
57372,16290
57360,16285
57365,16325
57373,16367
57393,16367
57373,16398
57339,16357
57345,16347
57358,16327
57394,16282
57421,16272
57437,16235
57426,16227
57425,16239
57390,16279
57369,16293
57338,16311
57342,16317
57341,16314
57369,16312
57364,16281
57369,16288
57351,16259
57351,16284
57353,16251
57321,16262
57294,16264
57250,16254
57251,16243
57261,16212
57290,16175
57293,16188
57325,16186
57305,16226
57289,16214
57309,16168
57335,16153
57386,16170
57393,16223
57392,16252
57393,16273
57398,16252
57376,16248
57359,16224
57334,16185
57351,16165
57327,16169
57360,16150
57378,16196
57376,16194
57384,16199
57366,16187
57383,16187
57350,16182
57355,16138
57351,16086
57342,16055
57337,16049
57331,16078
57332,16108
57326,16113
57318,16160
57317,16126
57314,16115
57327,16121
57338,16160
57326,16224
57332,16214
57329,16236
57339,16229
57343,16241
57346,16198
57342,16194
57339,16159
57347,16169
57325,16161
57334,16188
57326,16222
57334,16206
57325,16221
57295,16203
57295,16228
57250,16191
57245,16186
57242,16184
57254,16174
57295,16172
57288,16144
57247,16187
57215,16143
57237,16148
57257,16152
57306,16154
57334,16154
57307,16160
57299,16169
57287,16165
57274,16177
57253,16164
57261,16176
57268,16157
57276,16176
57308,16168
57308,16186
57322,16170
57329,16171
57326,16171
57307,16183
57314,16155
57300,16125
57290,16125
57276,16061
57272,16043
57262,16051
57267,16077
57266,16134
57272,16109
57262,16073
57267,16021
57272,16055
57279,16084
57277,16120
57283,16157
57249,16150
57004,16124
56738,16120
56604,16095
56604,16085
56636,16072
56702,16075
56804,16092
56849,16120
56872,16136
56903,16154
56887,16151
56856,16160
56824,16164
56803,16131
56804,16117
56805,16108
56759,16094
56689,16089
56707,16088
56753,16088
56811,16092
56849,16073
56876,16088
56865,16092
56847,16128
56853,16103
56822,16110
56813,16100
56813,16059
56839,15770
56851,15438
56890,15257
56910,15257
56926,15321
56905,15394
56922,15517
56903,15588
56898,15621
56894,15638
56895,15610
56873,15574
56879,15526
56866,15528
56881,15530
56872,15521
56876,15457
56867,15386
56859,15395
56850,15439
56842,15534
56866,15565
56866,15596
56901,15580
56880,15570
56862,15573
56864,15538
56904,15522
56957,15530
56985,15544
57009,15578
56982,15617
56983,15651
56974,15647
56974,15641
56961,15653
56938,15634
56945,15628
56960,15622
56995,15593
57013,15588
57027,15617
57018,15579
57006,15603
56990,15589
56973,15607
56956,15598
56938,15577
56944,15558
56937,15555
56934,15585
56966,15592
57006,15636
57000,15604
56983,15579
56969,15567
56992,15632
57021,15679
57056,15731
57058,15743
57049,15742
57059,15716
57046,15710
57033,15710
57004,15698
56990,15676
56995,15682
57019,15704
57023,15750
57049,15770
57043,15793
57043,15787
57046,15760
57035,15730
57021,15718
57016,15702
56998,15679
57005,15674
56994,15673
56994,15689
56991,15720
56991,15756
57014,15762
57007,15731
57012,15738
57014,15749
57009,15775
57024,15812
57026,15803
57030,15807
57033,15812
57041,15788
57032,15789
57027,15758
57042,15749
57026,15757
57039,15783
57038,15770
57034,15807
57047,15809
57038,15823
57055,15796
57044,15796
57047,15789
57039,15774
57042,15763
57032,15756
57018,15750
57018,15750
57023,15755
57060,15755
57077,15772
57049,15770
57000,15781
57015,15781
57036,15786
57090,15794
57106,15799
57125,15796
57092,15796
57077,15808
57069,15813
57048,15804
57028,15808
57024,15811
57020,15818
57047,15799
57072,15803
57069,15826
57082,15805
57070,15821
57059,15827
57066,15835
57039,15827
57044,15826
57028,15816
57021,15771
57021,15797
57022,15794
57037,15857
57031,15876
57035,15824
57029,15766
57039,15770
57035,15832
57052,15886
57048,15898
57049,15926
57039,15886
57029,15863
57034,15842
57045,15822
57041,15795
57030,15799
57034,15789
57035,15803
57036,15839
57021,15838
57037,15868
57028,15865
57026,15840
57005,15845
56988,15823
56927,15822
56930,15805
56940,15818
56948,15818
56978,15792
56901,15810
56873,15804
56875,15805
56922,15816
56955,15823
56995,15835
56998,15830
56972,15831
56963,15840
56947,15834
56953,15801
56954,15816
56943,15817
56979,15823
57013,15822
57054,15804
57070,15825
57070,15819
57063,15797
57053,15833
57038,15819
57020,15820
57021,15787
57009,15755
56987,15703
56963,15689
56959,15717
56988,15716
56988,15732
56993,15651
56989,15600
56946,15606
56934,15646
56953,15684
56978,15753
56987,15747
56986,15739
56975,15719
56959,15719
56958,15701
56948,15688
56904,15688
56918,15724
56940,15787
56946,15837
56978,15842
56991,15842
57012,15848
57015,15834
57024,15819
57010,15787
57008,15777
56996,15771
56992,15767
56981,15733
56968,15714
56958,15742
56966,15742
56960,15743
56962,15728
56952,15692
56957,15672
56943,15696
56950,15733
56946,15739
56968,15752
56953,15720
56929,15718
56922,15711
56926,15704
56928,15669
56970,15665
56952,15685
56918,15705
56904,15716
56904,15744
56941,15787
56976,15777
57004,15791
56993,15759
56987,15782
56967,15747
56977,15756
56941,15722
56932,15740
56917,15704
56924,15730
56939,15724
56965,15728
56976,15734
56975,15717
56960,15718
56955,15717
56949,15724
56930,15739
56930,15720
56907,15680
56922,15665
56900,15671
56894,15688
56907,15753
56914,15705
56911,15669
56913,15650
56907,15650
56907,15707
56906,15727
56913,15752
56905,15756
56905,15745
56907,15736
56896,15727
56884,15694
56870,15682
56838,15678
56810,15682
56787,15676
56772,15700
56767,15719
56774,15736
56782,15730
56778,15712
56778,15701
56793,15681
56779,15670
56771,15658
56766,15657
56776,15649
56775,15641
56725,15640
56632,15654
56628,15642
56628,15671
56670,15656
56665,15656
56711,15683
56708,15657
56694,15657
56685,15656
56681,15670
56665,15638
56665,15646
56670,15598
56686,15589
56713,15541
56703,15527
56744,15510
56744,15498
56757,15489
56735,15517
56709,15521
56707,15521
56697,15504
56696,15506
56707,15490
56697,15479
56710,15505
56692,15488
56682,15447
56684,15317
56696,15318
56700,15318
56695,15327
56701,15361
56711,15414
56709,15406
56716,15395
56694,15371
56679,15377
56682,15338
56698,15348
56719,15342
56717,15370
56681,15398
56699,15420
56735,15447
56791,15462
56804,15472
56833,15425
56822,15423
56822,15397
56814,15392
56799,15384
56784,15388
56778,15396
56784,15406
56807,15380
56844,15390
56900,15394
56939,15388
56932,15416
56930,15392
56904,15392
56885,15424
56884,15427
56864,15412
56854,15380
56867,15359
56863,15371
56875,15401
56878,15428
56835,15416
56806,15383
56810,15400
56852,15429
56874,15489
56904,15533
56902,15547
56906,15528
56907,15528
56904,15538
56890,15503
56856,15501
56860,15476
56868,15484
56880,15506
56873,15560
56901,15615
56912,15687
56913,15671
56908,15669
56892,15644
56912,15610
56884,15609
56900,15597
56902,15589
56895,15604
56893,15617
56893,15621
56879,15628
56869,15569
56824,15528
56833,15534
56840,15569
56861,15602
56893,15628
56891,15634
56872,15629
56872,15653
56874,15632
56886,15629
56934,15586
56949,15610
56970,15601
56953,15603
56954,15623
56953,15640
56921,15661
56912,15646
56899,15653
56914,15653
56921,15652
56934,15639
56957,15645
56951,15646
56955,15631
56947,15633
56942,15633
56937,15630
56918,15619
56919,15549
56911,15559
56921,15578
56917,15592
56925,15628
56902,15641
56923,15597
56908,15597
56927,15635
56914,15637
56938,15691
56921,15703
56923,15715
56918,15699
56925,15689
56924,15722
56926,15664
56929,15676
56926,15630
56931,15651
56938,15663
56935,15674
56930,15709
56927,15697
56927,15699
56916,15689
56879,15668
56887,15671
56887,15653
56915,15677
56947,15661
56919,15683
56877,15653
56875,15677
56897,15663
56947,15675
56956,15668
56956,15680
56930,15665
56920,15687
56907,15664
56882,15653
56833,15676
56790,15674
56791,15684
56780,15681
56778,15685
56809,15694
56841,15685
56860,15692
56844,15689
56817,15693
56771,15683
56793,15683
56823,15656
56838,15624
56841,15633
56815,15635
56760,15670
56785,15721
56831,15695
56840,15636
56866,15610
56875,15634
56846,15692
56788,15716
56774,15708
56785,15687
56782,15668
56782,15652
56742,15614
56679,15565
56636,15515
56646,15495
56656,15472
56680,15467
56682,15519
56665,15561
56686,15599
56716,15596
56763,15550
56770,15498
56768,15492
56741,15535
56712,15582
56712,15600
56696,15607
56666,15554
56660,15571
56651,15641
56683,15655
56729,15678
56767,15696
56806,15646
56808,15590
56783,15545
56779,15571
56750,15565
56746,15558
56719,15537
56715,15452
56712,15364
56721,15404
56747,15410
56778,15425
56801,15435
56729,15401
56705,15433
56702,15495
56719,15516
56758,15549
56752,15532
56724,15513
56720,15468
56690,15468
56686,15444
56680,15416
56693,15421
56710,15429
56720,15453
56725,15512
56732,15560
56736,15599
56739,15595
56755,15589
56753,15570
56784,15553
56786,15530
56782,15508
56768,15480
56777,15500
56765,15497
56771,15524
56771,15544
56764,15566
56778,15514
56773,15459
56777,15464
56754,15484
56769,15517
56778,15488
56775,15453
56776,15458
56733,15472
56719,15425
56696,15411
56718,15429
56717,15451
56722,15458
56686,15462
56683,15472
56696,15487
56745,15491
56746,15502
56742,15515
56721,15535
56702,15526
56708,15542
56697,15522
56665,15536
56654,15523
56629,15527
56642,15527
56641,15525
56668,15536
56665,15540
56660,15535
56659,15527
56631,15516
56628,15527
56626,15534
56626,15542
56624,15468
56616,15443
56622,15446
56618,15471
56615,15463
56624,15478
56618,15443
56636,15407
56621,15437
56636,15470
56631,15490
56646,15495
56647,15437
56645,15427
56653,15440
56649,15404
56656,15386
56656,15369
56653,15335
56657,15330
56643,15356
56664,15372
56667,15390
56664,15362
56671,15376
56654,15339
56677,15330
56663,15338
56665,15335
56668,15344
56643,15324
56644,15319
56646,15346
56628,15318
56625,15325
56623,15329
56594,15333
56568,15346
56573,15360
56574,15348
56605,15359
56631,15364
56607,15352
56563,15360
56523,15350
56553,15372
56597,15372
56626,15369
56652,15389
56621,15382
56616,15375
56614,15398
56604,15388
56578,15398
56579,15382
56570,15385
56602,15381
56622,15377
56653,15392
56654,15379
56641,15356
56637,15355
56618,15351
56607,15350
56587,15343
56587,15305
56596,15274
56562,15283
56565,15290
56554,15330
56553,15357
56545,15340
56539,15269
56546,15231
56533,15237
56504,15309
56504,15335
56498,15351
56494,15331
56455,15329
56443,15318
56470,15316
56487,15267
56480,15290
56445,15281
56434,15308
56468,15333
56517,15355
56554,15362
56566,15352
56540,15363
56524,15333
56486,15322
56468,15285
56462,15285
56466,15295
56467,15253
56488,15276
56519,15265
56542,15243
56570,15257
56577,15223
56585,15234
56579,15232
56566,15204
56552,15208
56540,15204
56539,15171
56522,15129
56520,15135
56512,15149
56501,15186
56477,15178
56478,15126
56476,15110
56499,15126
56522,15208
56524,15255
56484,15265
56475,15218
56490,15223
56509,15199
56537,15176
56517,15158
56523,15154
56523,15158
56517,15179
56507,15227
56490,15263
56470,15268
56487,15293
56479,15309
56500,15309
56488,15272
56511,15251
56492,15232
56484,15230
56461,15255
56399,15227
56399,15227
56387,15202
56378,15186
56380,15167
56374,15178
56372,15177
56378,15221
56371,15227
56373,15189
56366,15162
56381,15180
56374,15198
56383,15248
56377,15224
56383,15207
56360,15207
56378,15196
56365,15192
56374,15172
56371,15153
56373,15156
56374,15167
56367,15175
56358,15178
56349,15188
56341,15173
56347,15150
56315,15131
56322,15083
56298,15050
56295,15044
56243,15038
56243,15034
56236,15028
56241,15022
56241,15021
56287,15020
56272,15036
56229,15029
56190,15028
56216,15045
56221,15033
56251,15021
56246,15041
56251,15036
56224,15047
56222,15037
56196,15031
56180,15041
56150,15037
56168,15029
56174,15039
56206,15033
56210,15022
56212,15022
56216,15012
56201,14983
56197,15004
56177,14978
56174,14951
56160,14900
56145,14900
56130,14878
56128,14887
56117,14888
56109,14939
56094,14926
56081,14883
56077,14817
56086,14831
56078,14847
56082,14894
56081,14888
56078,14892
56066,14867
56065,14865
56046,14836
56056,14795
56048,14783
56037,14785
56025,14787
56028,14854
56010,14839
56021,14841
56016,14844
55982,14859
55955,14821
55958,14807
55981,14811
56007,14779
56007,14761
55995,14741
55943,14727
55912,14732
55942,14712
55991,14713
56023,14691
56054,14700
56031,14676
56033,14684
56015,14681
55994,14695
55972,14679
55980,14664
55988,14677
56017,14662
56036,14653
56053,14648
56066,14649
56050,14618
56053,14628
56030,14616
56027,14613
56023,14603
56025,14575
56026,14542
56016,14542
55988,14578
55953,14601
55922,14601
55917,14599
55925,14516
55866,14479
55821,14504
55791,14556
55681,14606
55629,14639
55626,14608
55679,14607
55755,14583
55754,14582
55728,14541
55709,14548
55709,14573
55705,14583
55705,14617
55686,14656
55695,14674
55695,14651
55749,14647
55749,14614
55790,14611
55804,14607
55823,14626
55832,14624
55829,14596
55817,14567
55817,14502
55804,14489
55800,14491
55799,14501
55796,14435
55815,14405
55809,14360
55809,14259
55810,14188
55827,14177
55811,14223
55818,14312
55828,14314
55836,14284
55837,14261
55833,14258
55839,14260
55839,14234
55836,14243
55841,14232
55842,14232
55844,14317
55844,14317
55850,14358
55878,14365
55866,14417
55864,14399
55847,14417
55845,14400
55849,14408
55877,14395
55885,14370
55889,14379
55824,14387
55785,14391
55763,14374
55796,14388
55820,14387
55859,14388
55850,14386
55868,14405
55846,14404
55840,14397
55816,14413
55813,14402
55804,14420
55811,14414
55810,14429
55842,14429
55841,14429
55841,14424
55853,14424
55843,14449
55835,14455
55838,14450
55827,14466
55819,14440
55811,14447
55804,14431
55801,14479
55800,14490
55811,14518
55797,14407
55802,14362
55797,14341
55813,14368
55802,14404
55814,14445
55809,14468
55820,14463
55834,14429
55851,14438
55846,14394
55836,14380
55835,14377
55819,14382
55820,14397
55813,14424
55807,14428
55765,14428
55760,14404
55769,14426
55776,14415
55810,14412
55758,14380
55719,14381
55678,14388
55687,14359
55709,14375
55731,14377
55749,14379
55727,14378
55714,14369
55704,14384
55684,14399
55674,14378
55664,14387
55673,14384
55673,14393
55678,14437
55721,14432
55729,14428
55724,14414
55738,14420
55710,14408
55696,14410
55702,14409
55694,14383
55687,14346
55671,14323
55680,14338
55666,14359
55671,14395
55671,14340
55664,14273
55677,14229
55668,14221
55668,14263
55650,14296
55634,14294
55639,14291
55661,14248
55676,14243
55653,14223
55636,14200
55640,14192
55680,14195
55717,14195
55746,14227
55730,14249
55719,14265
55704,14275
55670,14279
55642,14278
55607,14238
55614,14252
55597,14222
55611,14221
55604,14207
55629,14218
55618,14192
55632,14213
55614,14206
55592,14200
55588,14207
55588,14207
55581,14190
55585,14181
55577,14166
55585,14165
55556,14191
55530,14214
55528,14161
55527,14145
55565,14145
55608,14216
55577,14255
55545,14293
55545,14264
55539,14258
55568,14238
55608,14184
55612,14149
55618,14114
55596,14107
55591,14114
55583,14105
55576,14125
55555,14140
55542,14131
55567,14132
55580,14121
55597,14098
55604,14081
55607,14097
55605,14075
55608,14098
55590,14091
55603,14100
55583,14069
55592,14048
55583,14033
55592,14046
55591,14080
55605,14127
55603,14107
55608,14051
55593,14051
55619,14031
55617,14082
55605,14101
55623,14126
55612,14136
55620,14116
55614,14120
55607,14079
55621,14071
55608,14059
55616,14046
55600,14056
55612,14072
55613,14097
55619,14125
55619,14123
55607,14115
55587,14129
55571,14119
55571,14112
55585,14125
55580,14101
55599,14090
55621,14088
55581,14091
55545,14108
55530,14085
55553,14120
55591,14099
55613,14131
55617,14126
55586,14112
55578,14138
55565,14142
55532,14154
55523,14125
55515,14129
55555,14152
55555,14149
55566,14134
55577,14126
55577,14136
55586,14146
55568,14144
55573,14151
55555,14133
55556,14103
55553,14083
55543,14083
55542,14105
55553,14098
55540,14132
55553,14154
55557,14108
55547,14052
55570,14020
55564,14069
55573,14104
55570,14123
55578,14115
55583,14089
55582,14106
55569,14054
55577,14044
55567,14017
55584,14028
55572,14050
55574,14050
55573,14074
55572,14063
55560,14063
55547,14103
55565,14077
55564,14084
55574,14048
55609,14070
55576,14069
55525,14066
55526,14047
55529,14053
55578,14057
55603,14075
55610,14070
55593,14068
55573,14080
55563,14068
55539,14094
55539,14086
55530,14089
55545,14081
55552,14102
55592,14072
55608,14103
55640,14086
55652,14089
55659,14091
55645,14095
55642,14111
55623,14119
55602,14103
55593,14064
55566,14069
55570,14070
55582,14087
55592,14127
55605,14093
55590,14035
55560,14020
55550,14026
55580,14073
55611,14111
55646,14116
55650,14091
55647,14070
55623,14050
55599,14042
55553,14042
55533,14015
55529,14030
55540,14052
55550,14081
55565,14136
55562,14147
55554,14163
55545,14193
55534,14167
55505,14166
55497,14146
55503,14109
55498,14101
55528,14059
55554,14076
55577,14086
55554,14092
55556,14122
55556,14110
55560,14061
55586,14049
55620,14072
55614,14124
55642,14151
55642,14176
55635,14138
55607,14153
55607,14096
55608,14039
55598,14006
55607,14002
55631,14027
55639,14032
55640,14055
55648,14042
55637,14057
55641,14052
55623,14035
55616,14009
55624,13973
55604,13987
55613,13997
55597,14010
55605,14060
55602,14063
55614,14045
55618,14040
55613,14040
55613,14075
55626,14084
55618,14123
55629,14118
55629,14166
55636,14150
55637,14141
55635,14112
55634,14112
55636,14111
55645,14104
55650,14101
55652,14150
55613,14142
55616,14150
55624,14161
55641,14151
55655,14146
55706,14113
55647,14128
55626,14111
55620,14110
55663,14110
55694,14111
55704,14105
55704,14126
55692,14132
55684,14124
55672,14119
55660,14123
55655,14132
55630,14137
55636,14150
55647,14154
55657,14147
55672,14174
55668,14155
55673,14163
55683,14158
55682,14179
55663,14174
55643,14172
55640,14127
55639,14140
55639,14140
55625,14182
55627,14193
55587,14229
55575,14168
55553,14138
55533,14128
55537,14189
55537,14219
55549,14232
55560,14232
55566,14225
55564,14196
55576,14205
55578,14176
55588,14147
55598,14138
55597,14135
55613,14161
55604,14160
55581,14179
55566,14202
55547,14206
55568,14201
55593,14209
55576,14177
55536,14169
55502,14157
55544,14159
55544,14132
55599,14145
55634,14137
55627,14085
55623,14055
55626,14040
55622,14016
55605,14007
55612,13994
55616,14042
55653,14042
55653,14060
55681,14052
55727,14074
55740,14085
55732,14077
55724,14099
55696,14085
55695,14123
55662,14117
55643,14080
55616,14058
55623,14054
55616,14058
55621,14082
55627,14066
55608,14009
55583,13968
55564,14010
55595,14010
55603,14067
55639,14142
55632,14128
55638,14117
55629,14127
55636,14109
55597,14104
55589,14096
55598,14128
55602,14153
55632,14153
55651,14209
55663,14243
55658,14268
55658,14243
55663,14231
55640,14220
55632,14192
55619,14157
55622,14141
55618,14111
55613,14126
55614,14103
55618,14127
55625,14141
55617,14096
55631,14064
55628,14043
55628,14082
55636,14103
55635,14146
55643,14116
55635,14131
55647,14131
55644,14132
55656,14106
55641,14060
55653,14080
55648,14090
55657,14119
55670,14132
55655,14153
55665,14165
55659,14171
55654,14169
55648,14145
55657,14142
55660,14129
55656,14120
55665,14112
55664,14113
55657,14126
55624,14118
55627,14122
55626,14124
55641,14137
55662,14137
55682,14137
55622,14148
55590,14145
55602,14159
55636,14140
55654,14163
55665,14144
55655,14164
55617,14158
55628,14170
55604,14177
55595,14188
55581,14190
55590,14188
55600,14179
55626,14195
55637,14188
55637,14191
55628,14180
55630,14206
55616,14164
55603,14178
55578,14192
55577,14186
55549,14133
55559,14152
55548,14139
55540,14163
55542,14185
55538,14210
55538,14133
55515,14098
55538,14100
55517,14156
55521,14168
55516,14180
55516,14170
55521,14137
55514,14138
55504,14115
55505,14089
55520,14100
55513,14093
55519,14097
55523,14115
55513,14130
55521,14137
55516,14137
55523,14141
55509,14130
55499,14112
55468,14065
55463,14045
55473,14029
55498,14042
55510,14028
55477,14032
55456,14026
55459,14009
55496,14009
55532,13996
55539,14028
55551,14014
55530,14002
55530,14017
55495,14009
55478,14007
55466,14002
55471,14005
55463,13993
55491,14004
55506,13985
55526,14013
55512,14008
55508,14006
55492,14008
55480,13986
55453,14014
55453,13990
55460,13985
55448,13927
55439,13944
55420,13961
55411,13990
55364,14014
55350,13973
55326,13933
55287,13933
55297,13958
55282,14025
55324,14043
55340,14024
55322,13998
55311,14004
55287,13947
55327,13954
55349,13909
55394,13932
55386,13908
55393,13957
55387,13975
55376,14000
55354,13995
55341,14002
55345,13953
55342,13959
55359,13912
55393,13912
55387,13915
55375,13901
55391,13895
55374,13855
55377,13858
55365,13823
55362,13784
55364,13763
55358,13708
55362,13718
55361,13725
55369,13749
55353,13792
55364,13763
55364,13728
55379,13710
55370,13753
55386,13790
55374,13828
55373,13831
55379,13827
55386,13840
55380,13808
55382,13777
55383,13769
55378,13762
55390,13773
55390,13780
55387,13836
55385,13836
55385,13826
55390,13828
55382,13842
55378,13817
55382,13817
55398,13807
55392,13795
55374,13795
55345,13820
55360,13801
55358,13814
55395,13805
55426,13803
55413,13819
55374,13831
55350,13823
55391,13823
55445,13830
55479,13812
55494,13840
55482,13842
55457,13838
55457,13827
55438,13836
55425,13848
55411,13835
55434,13835
55438,13844
55472,13842
55477,13842
55488,13847
55485,13838
55473,13864
55464,13852
55453,13851
55438,13858
55444,13842
55425,13817
55437,13823
55420,13828
55423,13869
55413,13904
55431,13874
55414,13834
55430,13788
55430,13843
55419,13886
55427,13947
55430,13943
55419,13964
55429,13921
55425,13934
55426,13892
55425,13878
55428,13859
55416,13880
55422,13880
55424,13928
55422,13924
55423,13942
55428,13940
55420,13939
55409,13922
55404,13904
55413,13903
55430,13900
55447,13892
55402,13880
55381,13882
55378,13860
55430,13878
55455,13870
55491,13866
55488,13888
55466,13888
55471,13873
55450,13875
55446,13881
55428,13870
55446,13893
55469,13879
55491,13884
55521,13884
55556,13883
55547,13877
55543,13890
55509,13908
55504,13887
55485,13896
55481,13874
55463,13873
55448,13869
55430,13850
55429,13883
55423,13881
55453,13922
55448,13862
55448,13841
55409,13825
55354,13891
55377,13933
55398,13952
55425,13956
55436,13943
55434,13938
55434,13906
55430,13909
55426,13878
55425,13895
55399,13927
55396,13950
55403,14001
55402,14040
55421,14015
55436,14022
55453,13979
55446,13985
55457,13953
55448,13946
55441,13946
55439,13911
55431,13900
55425,13887
55415,13878
55407,13887
55413,13925
55416,13911
55410,13851
55415,13802
55417,13824
55419,13843
55411,13892
55412,13896
55413,13887
55429,13887
55422,13893
55408,13877
55422,13868
55403,13860
55416,13838
55404,13846
55405,13852
55399,13882
55404,13893
55396,13906
55374,13901
55333,13924
55353,13915
55354,13892
55381,13903
55402,13874
55402,13875
55344,13871
55341,13859
55321,13866
55374,13873
55393,13850
55415,13871
55390,13874
55388,13879
55375,13875
55363,13867
55340,13892
55324,13873
55323,13880
55336,13863
55332,13884
55373,13879
55365,13864
55366,13856
55365,13864
55366,13858
55357,13873
55338,13866
55323,13823
55325,13798
55332,13812
55321,13801
55319,13837
55316,13872
55317,13872
55313,13792
55330,13764
55322,13758
55322,13813
55334,13847
55336,13863
55333,13851
55338,13840
55329,13811
55344,13798
55336,13775
55342,13770
55340,13746
55333,13783
55314,13799
55315,13802
55316,13825
55321,13805
55297,13816
55262,13817
55257,13785
55232,13781
55245,13764
55256,13743
55282,13759
55243,13747
55203,13760
55195,13758
55195,13755
55220,13746
55252,13757
55277,13765
55282,13760
55266,13767
55253,13762
55244,13765
55226,13776
55219,13788
55223,13774
55247,13773
55261,13785
55305,13756
55333,13780
55341,13758
55343,13768
55337,13752
55323,13753
55335,13728
55314,13694
55313,13674
55310,13661
55309,13660
55310,13685
55303,13709
55307,13657
55298,13613
55308,13595
55275,13595
55284,13629
55260,13656
55273,13702
55279,13678
55292,13689
55238,13643
55211,13650
55218,13627
55250,13627
55265,13627
55271,13656
55260,13686
55247,13719
55234,13763
55222,13775
55199,13761
55202,13759
55189,13751
55189,13749
55194,13719
55217,13732
55223,13731
55227,13725
55213,13716
55224,13728
55216,13735
55219,13733
55187,13719
55192,13708
55181,13711
55156,13679
55153,13702
55139,13704
55151,13717
55127,13650
55156,13607
55159,13617
55171,13649
55166,13692
55185,13669
55179,13659
55190,13655
55179,13639
55184,13622
55184,13613
55187,13595
55201,13592
55188,13592
55201,13584
55181,13598
55183,13609
55194,13625
55196,13609
55184,13612
55145,13606
55146,13605
55130,13601
55164,13587
55173,13569
55165,13554
55117,13542
55106,13534
55125,13537
55165,13519
55197,13560
55195,13556
55173,13549
55147,13559
55154,13566
55154,13584
55120,13593
55129,13576
55111,13578
55134,13576
55144,13587
55164,13613
55164,13597
55164,13592
55162,13582
55153,13596
55144,13590
55131,13598
55144,13590
55117,13532
55117,13536
55111,13521
55115,13543
55117,13569
55107,13558
55109,13510
55093,13469
55104,13505
55103,13534
55082,13594
55093,13593
55087,13571
55098,13550
55078,13537
55088,13523
55076,13501
55082,13495
55073,13492
55086,13494
55068,13527
55040,13555
55024,13545
55049,13545
55041,13555
55080,13555
55042,13531
55033,13509
55041,13525
55094,13491
55121,13496
55141,13475
55146,13495
55126,13481
55125,13482
55101,13472
55089,13471
55075,13469
55085,13470
55102,13451
55121,13463
55160,13449
55161,13470
55161,13447
55169,13455
55148,13471
55142,13454
55137,13461
55131,13440
55111,13435
55105,13398
55095,13397
55097,13405
55095,13436
55097,13464
55100,13422
55110,13395
55081,13410
55084,13451
55108,13483
55130,13514
55138,13538
55154,13493
55150,13490
55146,13434
55149,13448
55137,13429
55105,13430
55106,13475
55131,13480
55141,13531
55135,13539
55159,13539
55164,13553
55171,13544
55163,13505
55155,13515
55140,13501
55133,13479
55128,13467
55120,13458
55132,13454
55116,13446
55124,13457
55133,13476
55129,13473
55126,13444
55136,13436
55136,13464
55134,13507
55145,13514
55149,13527
55145,13499
55138,13525
55150,13502
55133,13495
55151,13463
55138,13477
55154,13487
55137,13520
55157,13522
55151,13537
55146,13533
55146,13551
55109,13537
55118,13531
55113,13511
55127,13500
55152,13512
55153,13506
55105,13497
55103,13494
55121,13497
55147,13483
55164,13491
55154,13502
55144,13498
55122,13505
55125,13514
55112,13523
55094,13506
55087,13530
55082,13531
55105,13527
55133,13523
55140,13541
55146,13527
55136,13540
55135,13530
55120,13538
55109,13538
55104,13537
55101,13537
55096,13475
55107,13498
55095,13476
55102,13518
55095,13545
55105,13532
55088,13483
55100,13458
55085,13487
55099,13536
55092,13549
55094,13539
55103,13527
55096,13505
55097,13505
55089,13480
55102,13466
55097,13454
55097,13451
55107,13474
55101,13494
55100,13510
55096,13514
55107,13507
55100,13505
55078,13480
55067,13480
55062,13476
55053,13467
55103,13459
55122,13456
55065,13465
55062,13470
55097,13454
55131,13483
55164,13456
55175,13458
55169,13466
55147,13473
55136,13480
55146,13458
55120,13472
55118,13453
55113,13480
55145,13471
55152,13486
55205,13466
55216,13466
55191,13498
55182,13470
55173,13482
55167,13474
55150,13503
55155,13486
55147,13451
55146,13425
55136,13420
55137,13439
55121,13472
55122,13493
55116,13448
55128,13428
55148,13454
55163,13502
55132,13542
55123,13537
55122,13534
55154,13531
55160,13515
55162,13520
55149,13472
55141,13489
55118,13498
55114,13524
55114,13560
55104,13574
55103,13600
55096,13577
55110,13579
55129,13541
55154,13562
55177,13527
55172,13530
55177,13529
55158,13529
55167,13528
55156,13513
55151,13503
55141,13493
55132,13492
55141,13526
55139,13519
55138,13540
55142,13504
55144,13486
55143,13495
55152,13528
55155,13530
55150,13540
55154,13518
55162,13505
55165,13506
55159,13494
55161,13494
55165,13474
55157,13452
55164,13458
55171,13492
55166,13512
55174,13518
55163,13562
55185,13554
55168,13554
55173,13553
55173,13540
55169,13529
55146,13528
55147,13522
55131,13521
55160,13519
55186,13515
55196,13528
55196,13536
55145,13536
55130,13544
55135,13535
55168,13546
55201,13526
55205,13550
55205,13536
55178,13551
