Traceback (most recent call last):
  File "s.py", line 182, in <module>
    socketio.run(app, host='0.0.0.0', port=5000)
  File "/usr/local/lib/python3.8/dist-packages/flask_socketio/__init__.py", line 640, in run
    raise RuntimeError('The Werkzeug web server is not '
RuntimeError: The Werkzeug web server is not designed to run in production. Pass allow_unsafe_werkzeug=True to the run() method to disable this error.
Traceback (most recent call last):
  File "s.py", line 199, in <module>
    socketio.run(app, host='0.0.0.0', port=5000)
  File "/usr/local/lib/python3.8/dist-packages/flask_socketio/__init__.py", line 640, in run
    raise RuntimeError('The Werkzeug web server is not '
RuntimeError: The Werkzeug web server is not designed to run in production. Pass allow_unsafe_werkzeug=True to the run() method to disable this error.
Traceback (most recent call last):
  File "s.py", line 199, in <module>
    socketio.run(app, host='0.0.0.0', port=5000)
  File "/usr/local/lib/python3.8/dist-packages/flask_socketio/__init__.py", line 640, in run
    raise RuntimeError('The Werkzeug web server is not '
RuntimeError: The Werkzeug web server is not designed to run in production. Pass allow_unsafe_werkzeug=True to the run() method to disable this error.
usage: gunicorn [OPTIONS] [APP_MODULE]
gunicorn: error: argument -u/--user: expected one argument

Error: class uri 'eventlet' invalid or not found: 

[Traceback (most recent call last):
  File "/usr/local/lib/python3.8/dist-packages/gunicorn/workers/geventlet.py", line 10, in <module>
    import eventlet
ModuleNotFoundError: No module named 'eventlet'

During handling of the above exception, another exception occurred:

Traceback (most recent call last):
  File "/usr/local/lib/python3.8/dist-packages/gunicorn/util.py", line 111, in load_class
    mod = importlib.import_module('.'.join(components))
  File "/usr/lib/python3.8/importlib/__init__.py", line 127, in import_module
    return _bootstrap._gcd_import(name[level:], package, level)
  File "<frozen importlib._bootstrap>", line 1014, in _gcd_import
  File "<frozen importlib._bootstrap>", line 991, in _find_and_load
  File "<frozen importlib._bootstrap>", line 975, in _find_and_load_unlocked
  File "<frozen importlib._bootstrap>", line 671, in _load_unlocked
  File "<frozen importlib._bootstrap_external>", line 848, in exec_module
  File "<frozen importlib._bootstrap>", line 219, in _call_with_frames_removed
  File "/usr/local/lib/python3.8/dist-packages/gunicorn/workers/geventlet.py", line 12, in <module>
    raise RuntimeError("eventlet worker requires eventlet 0.24.1 or higher")
RuntimeError: eventlet worker requires eventlet 0.24.1 or higher
]


Error: class uri 'eventlet' invalid or not found: 

[Traceback (most recent call last):
  File "/usr/local/lib/python3.8/dist-packages/gunicorn/workers/geventlet.py", line 10, in <module>
    import eventlet
ModuleNotFoundError: No module named 'eventlet'

During handling of the above exception, another exception occurred:

Traceback (most recent call last):
  File "/usr/local/lib/python3.8/dist-packages/gunicorn/util.py", line 111, in load_class
    mod = importlib.import_module('.'.join(components))
  File "/usr/lib/python3.8/importlib/__init__.py", line 127, in import_module
    return _bootstrap._gcd_import(name[level:], package, level)
  File "<frozen importlib._bootstrap>", line 1014, in _gcd_import
  File "<frozen importlib._bootstrap>", line 991, in _find_and_load
  File "<frozen importlib._bootstrap>", line 975, in _find_and_load_unlocked
  File "<frozen importlib._bootstrap>", line 671, in _load_unlocked
  File "<frozen importlib._bootstrap_external>", line 848, in exec_module
  File "<frozen importlib._bootstrap>", line 219, in _call_with_frames_removed
  File "/usr/local/lib/python3.8/dist-packages/gunicorn/workers/geventlet.py", line 12, in <module>
    raise RuntimeError("eventlet worker requires eventlet 0.24.1 or higher")
RuntimeError: eventlet worker requires eventlet 0.24.1 or higher
]

[2024-07-17 13:31:30 +0900] [310960] [INFO] Starting gunicorn 22.0.0
[2024-07-17 13:31:30 +0900] [310960] [INFO] Listening at: http://0.0.0.0:5000 (310960)
[2024-07-17 13:31:30 +0900] [310960] [INFO] Using worker: eventlet
[2024-07-17 13:31:30 +0900] [310963] [INFO] Booting worker with pid: 310963
Received data: {'ir': [58274, 58256, 58250, 58242, 58237, 58219, 58200, 58192, 58207, 58217, 58249, 58249, 58249, 58211, 58207, 58232, 58276, 58295, 58280, 58238, 58212, 58177, 58153, 58114, 58140, 58153, 58196, 58226, 58266, 58273, 58291, 58289, 58273, 58261, 58248, 58220, 58211, 58210, 58184, 58190, 58197, 58194, 58188, 58184, 58194, 58189, 58200, 58191, 58211, 58207, 58221, 58219, 58218, 58222, 58224, 58228, 58217, 58216, 58200, 58190, 58132, 58141, 58138, 58162, 58183, 58190, 58118, 58097, 58121, 58151, 58151, 58188, 58176, 58175, 58139, 58144, 58126, 58099, 58101, 58110, 58139, 58175, 58178, 58195, 58181, 58193, 58175, 58172, 58171, 58161, 58148, 58147, 58159, 58141, 58151, 58142, 58158, 58164, 58161, 58173, 58156, 58179, 58176, 58172, 58153, 58163, 58161, 58153, 58148, 58145, 58155, 58147, 58149, 58157, 58151, 58153, 58133, 58141, 58141, 58142, 58100, 58065, 58063, 58082, 58087, 58138, 58090, 58036, 58027, 58063, 58115, 58143, 58154, 58113, 58120, 58100, 58070, 58050, 58059, 58063, 58089, 58088, 58089, 58089, 58086, 58061, 58031, 58002, 57986, 57987, 57998, 57983, 57939, 57850, 57785, 57776, 57783, 57833, 57865, 57923, 57954, 57979, 57978, 58014, 57966, 57952, 57943, 57968, 57954, 57997, 57946, 57922, 57911, 57955, 57998, 58019, 58019, 58001, 57994, 57976, 57961, 57919, 57923, 57920, 57948, 57948, 57990, 58007, 57994, 57985, 57958, 57922, 57909, 57904, 57876, 57869, 57886, 57903, 57884, 57868, 57864, 57905, 57947, 57991, 57978, 57985, 57958, 57960, 57904, 57895, 57883, 57891, 57914, 57950, 57993, 57997, 58023, 58013, 57973, 57945, 57965, 57996, 58018, 58018, 58044, 58021, 57993, 58014, 58056, 58095, 58069, 58055, 58037, 58053, 58059, 58008, 58022, 58003, 58015, 58044, 58056, 58079, 58060, 58045, 58017, 57996, 57983, 57977, 57969, 57973, 57967, 57964, 57957, 57959, 57958, 57968, 57965, 57970, 57969, 57986, 57973, 57990, 57996, 58008, 57973, 57967, 57953, 57957, 57961, 57966, 57955, 57938, 57912, 57819, 57815, 57818, 57824, 57877, 57866, 57843, 57833, 57833, 57859, 57876, 57924, 57944, 57923, 57913, 57893, 57867, 57856, 57852, 57836, 57838, 57843, 57869, 57868, 57864, 57851, 57844, 57836, 57820, 57802, 57780, 57772, 57770, 57777, 57773, 57777, 57776, 57783, 57787, 57779, 57787, 57786, 57785, 57804, 57792, 57796, 57783, 57797, 57786, 57774, 57782, 57770, 57768, 57763, 57763, 57753, 57737, 57737, 57742, 57728, 57699, 57659, 57639, 57652, 57672, 57717, 57684, 57646, 57656, 57679, 57719, 57746, 57751, 57740, 57707, 57735, 57719, 57708, 57719, 57719, 57749, 57783, 57822, 57830, 57826, 57806, 57806, 57787, 57796, 57777, 57780, 57800, 57790, 57798, 57794, 57787, 57780, 57770, 57782, 57781, 57754, 57723, 57733, 57722, 57750, 57765, 57742, 57694, 57674, 57699, 57719, 57719, 57727, 57684, 57617, 57575, 57568, 57528, 57517, 57491, 57513, 57532, 57566, 57593, 57617, 57627, 57629, 57618, 57606, 57616, 57620, 57631, 57618, 57593, 57600, 57578, 57585, 57582, 57581, 57583, 57581, 57593, 57592, 57603, 57609, 57626, 57650, 57694, 57710, 57756, 57750, 57772, 57771, 57792, 57804, 57803, 57814, 57818, 57825, 57788, 57788, 57795, 57796, 57833, 57869, 57846, 57786, 57801, 57820, 57886, 57899, 57932, 57891, 57883, 57875, 57859, 57831, 57834, 57845, 57865, 57873, 57889, 57882, 57899, 57887, 57863, 57864, 57846, 57850, 57849, 57839, 57825, 57835, 57824, 57829, 57819, 57837, 57835, 57837, 57831, 57852, 57836, 57847, 57845, 57835, 57815, 57826, 57822, 57825, 57819, 57824, 57816, 57806, 57815, 57790, 57777, 57774, 57772, 57772, 57759, 57729, 57689, 57692, 57689, 57715, 57730, 57686, 57643, 57599, 57638, 57647, 57670, 57683, 57660, 57638, 57630, 57617, 57599, 57617, 57627, 57655, 57691, 57719, 57731, 57721, 57716, 57690, 57679, 57674, 57664, 57659, 57655, 57643, 57652, 57646, 57665, 57667, 57660, 57646, 57652, 57641, 57640, 57610, 57597, 57584, 57593, 57616, 57602, 57553, 57559, 57590, 57590, 57633, 57629, 57624, 57581, 57575, 57547, 57544, 57538, 57547, 57566, 57575, 57617, 57662, 57653, 57662, 57631, 57624, 57602, 57602, 57596, 57600, 57580, 57586, 57607, 57580, 57608, 57618, 57612, 57625, 57608, 57628, 57628, 57617, 57625, 57608, 57616, 57603, 57592, 57584, 57572, 57580, 57580, 57612, 57591, 57551, 57541, 57565, 57625, 57640, 57652, 57639, 57635, 57629, 57571, 57581, 57565, 57571, 57597, 57615, 57638, 57644, 57648, 57638, 57629, 57612, 57591, 57578, 57571, 57575, 57566, 57562, 57558, 57578, 57568, 57580, 57574, 57573, 57569, 57574, 57585, 57594, 57579, 57586, 57601, 57589, 57596, 57596, 57608, 57599, 57599, 57598, 57603, 57570, 57553, 57556, 57572, 57592, 57613, 57573, 57537, 57534, 57571, 57618, 57642, 57633, 57633, 57632, 57623, 57585, 57586, 57582, 57573, 57598, 57631, 57645, 57649, 57650, 57633, 57617, 57606, 57590, 57586, 57583, 57565, 57584, 57602, 57596, 57574, 57584, 57589, 57595, 57601, 57603, 57599, 57607, 57588, 57591, 57592, 57586, 57593, 57587, 57585, 57572, 57528, 57511, 57509, 57525, 57546, 57541, 57458, 57433, 57443, 57478, 57500, 57500, 57513, 57497, 57474, 57474, 57427, 57408, 57392, 57407, 57389, 57421, 57439, 57466, 57471, 57456, 57473, 57439, 57437, 57426, 57422, 57419, 57415, 57419, 57411, 57397, 57372, 57360, 57365, 57373, 57393, 57373, 57339, 57345, 57358, 57394, 57421, 57437, 57426, 57425, 57390, 57369, 57338, 57342, 57341, 57369, 57364, 57369, 57351, 57351, 57353, 57321, 57294, 57250, 57251, 57261, 57290, 57293, 57325, 57305, 57289, 57309, 57335, 57386, 57393, 57392, 57393, 57398, 57376, 57359, 57334, 57351, 57327, 57360, 57378, 57376, 57384, 57366, 57383, 57350, 57355, 57351, 57342, 57337, 57331, 57332, 57326, 57318, 57317, 57314, 57327, 57338, 57326, 57332, 57329, 57339, 57343, 57346, 57342, 57339, 57347, 57325, 57334, 57326, 57334, 57325, 57295, 57295, 57250, 57245, 57242, 57254, 57295, 57288, 57247, 57215, 57237, 57257, 57306, 57334, 57307, 57299, 57287, 57274, 57253, 57261, 57268, 57276, 57308, 57308, 57322, 57329, 57326, 57307, 57314, 57300, 57290, 57276, 57272, 57262, 57267, 57266, 57272, 57262, 57267, 57272, 57279, 57277, 57283, 57249, 57004, 56738, 56604, 56604, 56636, 56702, 56804, 56849, 56872, 56903, 56887, 56856, 56824, 56803, 56804, 56805, 56759, 56689, 56707, 56753, 56811, 56849, 56876, 56865, 56847, 56853, 56822, 56813, 56813, 56839, 56851, 56890, 56910, 56926, 56905, 56922, 56903, 56898, 56894, 56895, 56873, 56879, 56866, 56881, 56872, 56876, 56867, 56859, 56850, 56842, 56866, 56866, 56901, 56880, 56862, 56864, 56904, 56957, 56985, 57009, 56982, 56983, 56974, 56974, 56961, 56938, 56945, 56960, 56995, 57013, 57027, 57018, 57006, 56990, 56973, 56956, 56938, 56944, 56937, 56934, 56966, 57006, 57000, 56983, 56969, 56992, 57021, 57056, 57058, 57049, 57059, 57046, 57033, 57004, 56990, 56995, 57019, 57023, 57049, 57043, 57043, 57046, 57035, 57021, 57016, 56998, 57005, 56994, 56994, 56991, 56991, 57014, 57007, 57012, 57014, 57009, 57024, 57026, 57030, 57033, 57041, 57032, 57027, 57042, 57026, 57039, 57038, 57034, 57047, 57038, 57055, 57044, 57047, 57039, 57042, 57032, 57018, 57018, 57023, 57060, 57077, 57049, 57000, 57015, 57036, 57090, 57106, 57125, 57092, 57077, 57069, 57048, 57028, 57024, 57020, 57047, 57072, 57069, 57082, 57070, 57059, 57066, 57039, 57044, 57028, 57021, 57021, 57022, 57037, 57031, 57035, 57029, 57039, 57035, 57052, 57048, 57049, 57039, 57029, 57034, 57045, 57041, 57030, 57034, 57035, 57036, 57021, 57037, 57028, 57026, 57005, 56988, 56927, 56930, 56940, 56948, 56978, 56901, 56873, 56875, 56922, 56955, 56995, 56998, 56972, 56963, 56947, 56953, 56954, 56943, 56979, 57013, 57054, 57070, 57070, 57063, 57053, 57038, 57020, 57021, 57009, 56987, 56963, 56959, 56988, 56988, 56993, 56989, 56946, 56934, 56953, 56978, 56987, 56986, 56975, 56959, 56958, 56948, 56904, 56918, 56940, 56946, 56978, 56991, 57012, 57015, 57024, 57010, 57008, 56996, 56992, 56981, 56968, 56958, 56966, 56960, 56962, 56952, 56957, 56943, 56950, 56946, 56968, 56953, 56929, 56922, 56926, 56928, 56970, 56952, 56918, 56904, 56904, 56941, 56976, 57004, 56993, 56987, 56967, 56977, 56941, 56932, 56917, 56924, 56939, 56965, 56976, 56975, 56960, 56955, 56949, 56930, 56930, 56907, 56922, 56900, 56894, 56907, 56914, 56911, 56913, 56907, 56907, 56906, 56913, 56905, 56905, 56907, 56896, 56884, 56870, 56838, 56810, 56787, 56772, 56767, 56774, 56782, 56778, 56778, 56793, 56779, 56771, 56766, 56776, 56775, 56725, 56632, 56628, 56628, 56670, 56665, 56711, 56708, 56694, 56685, 56681, 56665, 56665, 56670, 56686, 56713, 56703, 56744, 56744, 56757, 56735, 56709, 56707, 56697, 56696, 56707, 56697, 56710, 56692, 56682, 56684, 56696, 56700, 56695, 56701, 56711, 56709, 56716, 56694, 56679, 56682, 56698, 56719, 56717, 56681, 56699, 56735, 56791, 56804, 56833, 56822, 56822, 56814, 56799, 56784, 56778, 56784, 56807, 56844, 56900, 56939, 56932, 56930, 56904, 56885, 56884, 56864, 56854, 56867, 56863, 56875, 56878, 56835, 56806, 56810, 56852, 56874, 56904, 56902, 56906, 56907, 56904, 56890, 56856, 56860, 56868, 56880, 56873, 56901, 56912, 56913, 56908, 56892, 56912, 56884, 56900, 56902, 56895, 56893, 56893, 56879, 56869, 56824, 56833, 56840, 56861, 56893, 56891, 56872, 56872, 56874, 56886, 56934, 56949, 56970, 56953, 56954, 56953, 56921, 56912, 56899, 56914, 56921, 56934, 56957, 56951, 56955, 56947, 56942, 56937, 56918, 56919, 56911, 56921, 56917, 56925, 56902, 56923, 56908, 56927, 56914, 56938, 56921, 56923, 56918, 56925, 56924, 56926, 56929, 56926, 56931, 56938, 56935, 56930, 56927, 56927, 56916, 56879, 56887, 56887, 56915, 56947, 56919, 56877, 56875, 56897, 56947, 56956, 56956, 56930, 56920, 56907, 56882, 56833, 56790, 56791, 56780, 56778, 56809, 56841, 56860, 56844, 56817, 56771, 56793, 56823, 56838, 56841, 56815, 56760, 56785, 56831, 56840, 56866, 56875, 56846, 56788, 56774, 56785, 56782, 56782, 56742, 56679, 56636, 56646, 56656, 56680, 56682, 56665, 56686, 56716, 56763, 56770, 56768, 56741, 56712, 56712, 56696, 56666, 56660, 56651, 56683, 56729, 56767, 56806, 56808, 56783, 56779, 56750, 56746, 56719, 56715, 56712, 56721, 56747, 56778, 56801, 56729, 56705, 56702, 56719, 56758, 56752, 56724, 56720, 56690, 56686, 56680, 56693, 56710, 56720, 56725, 56732, 56736, 56739, 56755, 56753, 56784, 56786, 56782, 56768, 56777, 56765, 56771, 56771, 56764, 56778, 56773, 56777, 56754, 56769, 56778, 56775, 56776, 56733, 56719, 56696, 56718, 56717, 56722, 56686, 56683, 56696, 56745, 56746, 56742, 56721, 56702, 56708, 56697, 56665, 56654, 56629, 56642, 56641, 56668, 56665, 56660, 56659, 56631, 56628, 56626, 56626, 56624, 56616, 56622, 56618, 56615, 56624, 56618, 56636, 56621, 56636, 56631, 56646, 56647, 56645, 56653, 56649, 56656, 56656, 56653, 56657, 56643, 56664, 56667, 56664, 56671, 56654, 56677, 56663, 56665, 56668, 56643, 56644, 56646, 56628, 56625, 56623, 56594, 56568, 56573, 56574, 56605, 56631, 56607, 56563, 56523, 56553, 56597, 56626, 56652, 56621, 56616, 56614, 56604, 56578, 56579, 56570, 56602, 56622, 56653, 56654, 56641, 56637, 56618, 56607, 56587, 56587, 56596, 56562, 56565, 56554, 56553, 56545, 56539, 56546, 56533, 56504, 56504, 56498, 56494, 56455, 56443, 56470, 56487, 56480, 56445, 56434, 56468, 56517, 56554, 56566, 56540, 56524, 56486, 56468, 56462, 56466, 56467, 56488, 56519, 56542, 56570, 56577, 56585, 56579, 56566, 56552, 56540, 56539, 56522, 56520, 56512, 56501, 56477, 56478, 56476, 56499, 56522, 56524, 56484, 56475, 56490, 56509, 56537, 56517, 56523, 56523, 56517, 56507, 56490, 56470, 56487, 56479, 56500, 56488, 56511, 56492, 56484, 56461, 56399, 56399, 56387, 56378, 56380, 56374, 56372, 56378, 56371, 56373, 56366, 56381, 56374, 56383, 56377, 56383, 56360, 56378, 56365, 56374, 56371, 56373, 56374, 56367, 56358, 56349, 56341, 56347, 56315, 56322, 56298, 56295, 56243, 56243, 56236, 56241, 56241, 56287, 56272, 56229, 56190, 56216, 56221, 56251, 56246, 56251, 56224, 56222, 56196, 56180, 56150, 56168, 56174, 56206, 56210, 56212, 56216, 56201, 56197, 56177, 56174, 56160, 56145, 56130, 56128, 56117, 56109, 56094, 56081, 56077, 56086, 56078, 56082, 56081, 56078, 56066, 56065, 56046, 56056, 56048, 56037, 56025, 56028, 56010, 56021, 56016, 55982, 55955, 55958, 55981, 56007, 56007, 55995, 55943, 55912, 55942, 55991, 56023, 56054, 56031, 56033, 56015, 55994, 55972, 55980, 55988, 56017, 56036, 56053, 56066, 56050, 56053, 56030, 56027, 56023, 56025, 56026, 56016, 55988, 55953, 55922, 55917, 55925, 55866, 55821, 55791, 55681, 55629, 55626, 55679, 55755, 55754, 55728, 55709, 55709, 55705, 55705, 55686, 55695, 55695, 55749, 55749, 55790, 55804, 55823, 55832, 55829, 55817, 55817, 55804, 55800, 55799, 55796, 55815, 55809, 55809, 55810, 55827, 55811, 55818, 55828, 55836, 55837, 55833, 55839, 55839, 55836, 55841, 55842, 55844, 55844, 55850, 55878, 55866, 55864, 55847, 55845, 55849, 55877, 55885, 55889, 55824, 55785, 55763, 55796, 55820, 55859, 55850, 55868, 55846, 55840, 55816, 55813, 55804, 55811, 55810, 55842, 55841, 55841, 55853, 55843, 55835, 55838, 55827, 55819, 55811, 55804, 55801, 55800, 55811, 55797, 55802, 55797, 55813, 55802, 55814, 55809, 55820, 55834, 55851, 55846, 55836, 55835, 55819, 55820, 55813, 55807, 55765, 55760, 55769, 55776, 55810, 55758, 55719, 55678, 55687, 55709, 55731, 55749, 55727, 55714, 55704, 55684, 55674, 55664, 55673, 55673, 55678, 55721, 55729, 55724, 55738, 55710, 55696, 55702, 55694, 55687, 55671, 55680, 55666, 55671, 55671, 55664, 55677, 55668, 55668, 55650, 55634, 55639, 55661, 55676, 55653, 55636, 55640, 55680, 55717, 55746, 55730, 55719, 55704, 55670, 55642, 55607, 55614, 55597, 55611, 55604, 55629, 55618, 55632, 55614, 55592, 55588, 55588, 55581, 55585, 55577, 55585, 55556, 55530, 55528, 55527, 55565, 55608, 55577, 55545, 55545, 55539, 55568, 55608, 55612, 55618, 55596, 55591, 55583, 55576, 55555, 55542, 55567, 55580, 55597, 55604, 55607, 55605, 55608, 55590, 55603, 55583, 55592, 55583, 55592, 55591, 55605, 55603, 55608, 55593, 55619, 55617, 55605, 55623, 55612, 55620, 55614, 55607, 55621, 55608, 55616, 55600, 55612, 55613, 55619, 55619, 55607, 55587, 55571, 55571, 55585, 55580, 55599, 55621, 55581, 55545, 55530, 55553, 55591, 55613, 55617, 55586, 55578, 55565, 55532, 55523, 55515, 55555, 55555, 55566, 55577, 55577, 55586, 55568, 55573, 55555, 55556, 55553, 55543, 55542, 55553, 55540, 55553, 55557, 55547, 55570, 55564, 55573, 55570, 55578, 55583, 55582, 55569, 55577, 55567, 55584, 55572, 55574, 55573, 55572, 55560, 55547, 55565, 55564, 55574, 55609, 55576, 55525, 55526, 55529, 55578, 55603, 55610, 55593, 55573, 55563, 55539, 55539, 55530, 55545, 55552, 55592, 55608, 55640, 55652, 55659, 55645, 55642, 55623, 55602, 55593, 55566, 55570, 55582, 55592, 55605, 55590, 55560, 55550, 55580, 55611, 55646, 55650, 55647, 55623, 55599, 55553, 55533, 55529, 55540, 55550, 55565, 55562, 55554, 55545, 55534, 55505, 55497, 55503, 55498, 55528, 55554, 55577, 55554, 55556, 55556, 55560, 55586, 55620, 55614, 55642, 55642, 55635, 55607, 55607, 55608, 55598, 55607, 55631, 55639, 55640, 55648, 55637, 55641, 55623, 55616, 55624, 55604, 55613, 55597, 55605, 55602, 55614, 55618, 55613, 55613, 55626, 55618, 55629, 55629, 55636, 55637, 55635, 55634, 55636, 55645, 55650, 55652, 55613, 55616, 55624, 55641, 55655, 55706, 55647, 55626, 55620, 55663, 55694, 55704, 55704, 55692, 55684, 55672, 55660, 55655, 55630, 55636, 55647, 55657, 55672, 55668, 55673, 55683, 55682, 55663, 55643, 55640, 55639, 55639, 55625, 55627, 55587, 55575, 55553, 55533, 55537, 55537, 55549, 55560, 55566, 55564, 55576, 55578, 55588, 55598, 55597, 55613, 55604, 55581, 55566, 55547, 55568, 55593, 55576, 55536, 55502, 55544, 55544, 55599, 55634, 55627, 55623, 55626, 55622, 55605, 55612, 55616, 55653, 55653, 55681, 55727, 55740, 55732, 55724, 55696, 55695, 55662, 55643, 55616, 55623, 55616, 55621, 55627, 55608, 55583, 55564, 55595, 55603, 55639, 55632, 55638, 55629, 55636, 55597, 55589, 55598, 55602, 55632, 55651, 55663, 55658, 55658, 55663, 55640, 55632, 55619, 55622, 55618, 55613, 55614, 55618, 55625, 55617, 55631, 55628, 55628, 55636, 55635, 55643, 55635, 55647, 55644, 55656, 55641, 55653, 55648, 55657, 55670, 55655, 55665, 55659, 55654, 55648, 55657, 55660, 55656, 55665, 55664, 55657, 55624, 55627, 55626, 55641, 55662, 55682, 55622, 55590, 55602, 55636, 55654, 55665, 55655, 55617, 55628, 55604, 55595, 55581, 55590, 55600, 55626, 55637, 55637, 55628, 55630, 55616, 55603, 55578, 55577, 55549, 55559, 55548, 55540, 55542, 55538, 55538, 55515, 55538, 55517, 55521, 55516, 55516, 55521, 55514, 55504, 55505, 55520, 55513, 55519, 55523, 55513, 55521, 55516, 55523, 55509, 55499, 55468, 55463, 55473, 55498, 55510, 55477, 55456, 55459, 55496, 55532, 55539, 55551, 55530, 55530, 55495, 55478, 55466, 55471, 55463, 55491, 55506, 55526, 55512, 55508, 55492, 55480, 55453, 55453, 55460, 55448, 55439, 55420, 55411, 55364, 55350, 55326, 55287, 55297, 55282, 55324, 55340, 55322, 55311, 55287, 55327, 55349, 55394, 55386, 55393, 55387, 55376, 55354, 55341, 55345, 55342, 55359, 55393, 55387, 55375, 55391, 55374, 55377, 55365, 55362, 55364, 55358, 55362, 55361, 55369, 55353, 55364, 55364, 55379, 55370, 55386, 55374, 55373, 55379, 55386, 55380, 55382, 55383, 55378, 55390, 55390, 55387, 55385, 55385, 55390, 55382, 55378, 55382, 55398, 55392, 55374, 55345, 55360, 55358, 55395, 55426, 55413, 55374, 55350, 55391, 55445, 55479, 55494, 55482, 55457, 55457, 55438, 55425, 55411, 55434, 55438, 55472, 55477, 55488, 55485, 55473, 55464, 55453, 55438, 55444, 55425, 55437, 55420, 55423, 55413, 55431, 55414, 55430, 55430, 55419, 55427, 55430, 55419, 55429, 55425, 55426, 55425, 55428, 55416, 55422, 55424, 55422, 55423, 55428, 55420, 55409, 55404, 55413, 55430, 55447, 55402, 55381, 55378, 55430, 55455, 55491, 55488, 55466, 55471, 55450, 55446, 55428, 55446, 55469, 55491, 55521, 55556, 55547, 55543, 55509, 55504, 55485, 55481, 55463, 55448, 55430, 55429, 55423, 55453, 55448, 55448, 55409, 55354, 55377, 55398, 55425, 55436, 55434, 55434, 55430, 55426, 55425, 55399, 55396, 55403, 55402, 55421, 55436, 55453, 55446, 55457, 55448, 55441, 55439, 55431, 55425, 55415, 55407, 55413, 55416, 55410, 55415, 55417, 55419, 55411, 55412, 55413, 55429, 55422, 55408, 55422, 55403, 55416, 55404, 55405, 55399, 55404, 55396, 55374, 55333, 55353, 55354, 55381, 55402, 55402, 55344, 55341, 55321, 55374, 55393, 55415, 55390, 55388, 55375, 55363, 55340, 55324, 55323, 55336, 55332, 55373, 55365, 55366, 55365, 55366, 55357, 55338, 55323, 55325, 55332, 55321, 55319, 55316, 55317, 55313, 55330, 55322, 55322, 55334, 55336, 55333, 55338, 55329, 55344, 55336, 55342, 55340, 55333, 55314, 55315, 55316, 55321, 55297, 55262, 55257, 55232, 55245, 55256, 55282, 55243, 55203, 55195, 55195, 55220, 55252, 55277, 55282, 55266, 55253, 55244, 55226, 55219, 55223, 55247, 55261, 55305, 55333, 55341, 55343, 55337, 55323, 55335, 55314, 55313, 55310, 55309, 55310, 55303, 55307, 55298, 55308, 55275, 55284, 55260, 55273, 55279, 55292, 55238, 55211, 55218, 55250, 55265, 55271, 55260, 55247, 55234, 55222, 55199, 55202, 55189, 55189, 55194, 55217, 55223, 55227, 55213, 55224, 55216, 55219, 55187, 55192, 55181, 55156, 55153, 55139, 55151, 55127, 55156, 55159, 55171, 55166, 55185, 55179, 55190, 55179, 55184, 55184, 55187, 55201, 55188, 55201, 55181, 55183, 55194, 55196, 55184, 55145, 55146, 55130, 55164, 55173, 55165, 55117, 55106, 55125, 55165, 55197, 55195, 55173, 55147, 55154, 55154, 55120, 55129, 55111, 55134, 55144, 55164, 55164, 55164, 55162, 55153, 55144, 55131, 55144, 55117, 55117, 55111, 55115, 55117, 55107, 55109, 55093, 55104, 55103, 55082, 55093, 55087, 55098, 55078, 55088, 55076, 55082, 55073, 55086, 55068, 55040, 55024, 55049, 55041, 55080, 55042, 55033, 55041, 55094, 55121, 55141, 55146, 55126, 55125, 55101, 55089, 55075, 55085, 55102, 55121, 55160, 55161, 55161, 55169, 55148, 55142, 55137, 55131, 55111, 55105, 55095, 55097, 55095, 55097, 55100, 55110, 55081, 55084, 55108, 55130, 55138, 55154, 55150, 55146, 55149, 55137, 55105, 55106, 55131, 55141, 55135, 55159, 55164, 55171, 55163, 55155, 55140, 55133, 55128, 55120, 55132, 55116, 55124, 55133, 55129, 55126, 55136, 55136, 55134, 55145, 55149, 55145, 55138, 55150, 55133, 55151, 55138, 55154, 55137, 55157, 55151, 55146, 55146, 55109, 55118, 55113, 55127, 55152, 55153, 55105, 55103, 55121, 55147, 55164, 55154, 55144, 55122, 55125, 55112, 55094, 55087, 55082, 55105, 55133, 55140, 55146, 55136, 55135, 55120, 55109, 55104, 55101, 55096, 55107, 55095, 55102, 55095, 55105, 55088, 55100, 55085, 55099, 55092, 55094, 55103, 55096, 55097, 55089, 55102, 55097, 55097, 55107, 55101, 55100, 55096, 55107, 55100, 55078, 55067, 55062, 55053, 55103, 55122, 55065, 55062, 55097, 55131, 55164, 55175, 55169, 55147, 55136, 55146, 55120, 55118, 55113, 55145, 55152, 55205, 55216, 55191, 55182, 55173, 55167, 55150, 55155, 55147, 55146, 55136, 55137, 55121, 55122, 55116, 55128, 55148, 55163, 55132, 55123, 55122, 55154, 55160, 55162, 55149, 55141, 55118, 55114, 55114, 55104, 55103, 55096, 55110, 55129, 55154, 55177, 55172, 55177, 55158, 55167, 55156, 55151, 55141, 55132, 55141, 55139, 55138, 55142, 55144, 55143, 55152, 55155, 55150, 55154, 55162, 55165, 55159, 55161, 55165, 55157, 55164, 55171, 55166, 55174, 55163, 55185, 55168, 55173, 55173, 55169, 55146, 55147, 55131, 55160, 55186, 55196, 55196, 55145, 55130, 55135, 55168, 55201, 55205, 55205, 55178], 'red': [17331, 17300, 17297, 17284, 17279, 17251, 17252, 17224, 17246, 17287, 17293, 17293, 17295, 17251, 17230, 17259, 17328, 17324, 17340, 17266, 17245, 17189, 17172, 17161, 17159, 17164, 17211, 17277, 17311, 17329, 17337, 17343, 17323, 17329, 17283, 17261, 17256, 17230, 17211, 17216, 17239, 17227, 17228, 17219, 17209, 17220, 17234, 17232, 17245, 17235, 17258, 17264, 17237, 17271, 17272, 17282, 17261, 17267, 17242, 17244, 17165, 17188, 17183, 17216, 17253, 17219, 17148, 17123, 17151, 17194, 17194, 17234, 17216, 17204, 17172, 17169, 17146, 17114, 17129, 17140, 17171, 17194, 17218, 17217, 17223, 17234, 17212, 17212, 17176, 17208, 17173, 17191, 17189, 17180, 17197, 17199, 17188, 17200, 17186, 17227, 17198, 17209, 17215, 17208, 17192, 17207, 17192, 17200, 17196, 17185, 17195, 17191, 17191, 17193, 17202, 17193, 17166, 17162, 17162, 17180, 17136, 17086, 17100, 17105, 17130, 17175, 17134, 17046, 17049, 17070, 17123, 17170, 17181, 17138, 17136, 17110, 17081, 17072, 17071, 17081, 17100, 17112, 17095, 17099, 17082, 17089, 17050, 17004, 16972, 16969, 16987, 16980, 16909, 16817, 16754, 16740, 16761, 16790, 16842, 16914, 16928, 16947, 16964, 16996, 16946, 16941, 16916, 16923, 16956, 16992, 16945, 16904, 16886, 16925, 16975, 17018, 17018, 17001, 16994, 16959, 16925, 16892, 16886, 16913, 16900, 16933, 16967, 16992, 16986, 16974, 16936, 16913, 16878, 16862, 16844, 16854, 16858, 16863, 16855, 16834, 16837, 16857, 16917, 16970, 16975, 16959, 16945, 16932, 16874, 16866, 16842, 16877, 16899, 16946, 16986, 16997, 17022, 17022, 16970, 16946, 16948, 16997, 17013, 17013, 17049, 17010, 17002, 17006, 17058, 17107, 17104, 17067, 17052, 17053, 17045, 17002, 17020, 16997, 17012, 17055, 17052, 17081, 17067, 17049, 17033, 17010, 16986, 16977, 16946, 16967, 16951, 16947, 16941, 16940, 16939, 16968, 16959, 16954, 16963, 16973, 16975, 16987, 16979, 17005, 16973, 16987, 16943, 16951, 16957, 16959, 16957, 16929, 16921, 16797, 16775, 16796, 16790, 16867, 16865, 16807, 16804, 16804, 16837, 16850, 16901, 16919, 16905, 16882, 16852, 16827, 16799, 16805, 16786, 16785, 16811, 16837, 16835, 16837, 16804, 16794, 16797, 16770, 16759, 16720, 16710, 16723, 16724, 16715, 16731, 16731, 16734, 16737, 16723, 16746, 16751, 16759, 16755, 16738, 16760, 16740, 16742, 16753, 16726, 16751, 16712, 16718, 16697, 16697, 16715, 16689, 16695, 16706, 16694, 16637, 16594, 16562, 16577, 16604, 16662, 16645, 16570, 16558, 16578, 16658, 16690, 16689, 16659, 16650, 16647, 16660, 16622, 16658, 16670, 16694, 16729, 16764, 16780, 16786, 16760, 16762, 16739, 16740, 16747, 16733, 16735, 16749, 16735, 16738, 16716, 16721, 16725, 16736, 16722, 16702, 16641, 16679, 16665, 16706, 16709, 16663, 16632, 16586, 16640, 16635, 16635, 16670, 16601, 16534, 16499, 16470, 16411, 16425, 16385, 16414, 16409, 16491, 16512, 16532, 16551, 16555, 16549, 16532, 16525, 16539, 16556, 16538, 16516, 16503, 16496, 16497, 16481, 16483, 16476, 16510, 16506, 16501, 16528, 16539, 16553, 16555, 16627, 16644, 16680, 16691, 16722, 16728, 16727, 16753, 16740, 16783, 16772, 16787, 16755, 16755, 16748, 16754, 16815, 16857, 16796, 16743, 16743, 16767, 16834, 16872, 16897, 16856, 16847, 16839, 16802, 16786, 16777, 16775, 16812, 16816, 16866, 16840, 16863, 16852, 16839, 16812, 16793, 16805, 16776, 16780, 16766, 16776, 16769, 16785, 16774, 16791, 16784, 16791, 16777, 16799, 16796, 16788, 16788, 16793, 16763, 16789, 16764, 16756, 16795, 16765, 16770, 16751, 16761, 16752, 16739, 16703, 16706, 16706, 16679, 16648, 16607, 16617, 16593, 16642, 16659, 16619, 16538, 16470, 16532, 16549, 16573, 16583, 16541, 16534, 16498, 16507, 16487, 16509, 16513, 16531, 16584, 16614, 16627, 16642, 16631, 16588, 16598, 16576, 16562, 16548, 16549, 16543, 16550, 16550, 16562, 16561, 16563, 16543, 16557, 16543, 16535, 16502, 16478, 16469, 16491, 16502, 16477, 16417, 16429, 16459, 16459, 16516, 16503, 16509, 16463, 16449, 16422, 16401, 16412, 16397, 16431, 16465, 16486, 16564, 16555, 16568, 16523, 16493, 16483, 16483, 16465, 16477, 16476, 16462, 16493, 16459, 16497, 16489, 16509, 16516, 16496, 16506, 16506, 16510, 16519, 16508, 16512, 16507, 16499, 16456, 16466, 16477, 16477, 16509, 16479, 16421, 16392, 16414, 16501, 16534, 16543, 16532, 16521, 16511, 16463, 16446, 16441, 16453, 16491, 16493, 16532, 16544, 16538, 16546, 16513, 16497, 16466, 16462, 16449, 16453, 16425, 16438, 16432, 16449, 16440, 16462, 16455, 16462, 16468, 16452, 16472, 16474, 16500, 16476, 16491, 16500, 16488, 16488, 16497, 16490, 16495, 16487, 16489, 16455, 16447, 16413, 16456, 16492, 16525, 16463, 16415, 16407, 16475, 16505, 16546, 16542, 16532, 16511, 16508, 16491, 16441, 16470, 16447, 16487, 16495, 16565, 16526, 16546, 16527, 16507, 16505, 16478, 16465, 16457, 16455, 16469, 16473, 16499, 16473, 16476, 16498, 16486, 16491, 16503, 16481, 16510, 16483, 16488, 16503, 16479, 16481, 16474, 16459, 16456, 16415, 16401, 16393, 16404, 16431, 16433, 16326, 16290, 16285, 16325, 16367, 16367, 16398, 16357, 16347, 16327, 16282, 16272, 16235, 16227, 16239, 16279, 16293, 16311, 16317, 16314, 16312, 16281, 16288, 16259, 16284, 16251, 16262, 16264, 16254, 16243, 16212, 16175, 16188, 16186, 16226, 16214, 16168, 16153, 16170, 16223, 16252, 16273, 16252, 16248, 16224, 16185, 16165, 16169, 16150, 16196, 16194, 16199, 16187, 16187, 16182, 16138, 16086, 16055, 16049, 16078, 16108, 16113, 16160, 16126, 16115, 16121, 16160, 16224, 16214, 16236, 16229, 16241, 16198, 16194, 16159, 16169, 16161, 16188, 16222, 16206, 16221, 16203, 16228, 16191, 16186, 16184, 16174, 16172, 16144, 16187, 16143, 16148, 16152, 16154, 16154, 16160, 16169, 16165, 16177, 16164, 16176, 16157, 16176, 16168, 16186, 16170, 16171, 16171, 16183, 16155, 16125, 16125, 16061, 16043, 16051, 16077, 16134, 16109, 16073, 16021, 16055, 16084, 16120, 16157, 16150, 16124, 16120, 16095, 16085, 16072, 16075, 16092, 16120, 16136, 16154, 16151, 16160, 16164, 16131, 16117, 16108, 16094, 16089, 16088, 16088, 16092, 16073, 16088, 16092, 16128, 16103, 16110, 16100, 16059, 15770, 15438, 15257, 15257, 15321, 15394, 15517, 15588, 15621, 15638, 15610, 15574, 15526, 15528, 15530, 15521, 15457, 15386, 15395, 15439, 15534, 15565, 15596, 15580, 15570, 15573, 15538, 15522, 15530, 15544, 15578, 15617, 15651, 15647, 15641, 15653, 15634, 15628, 15622, 15593, 15588, 15617, 15579, 15603, 15589, 15607, 15598, 15577, 15558, 15555, 15585, 15592, 15636, 15604, 15579, 15567, 15632, 15679, 15731, 15743, 15742, 15716, 15710, 15710, 15698, 15676, 15682, 15704, 15750, 15770, 15793, 15787, 15760, 15730, 15718, 15702, 15679, 15674, 15673, 15689, 15720, 15756, 15762, 15731, 15738, 15749, 15775, 15812, 15803, 15807, 15812, 15788, 15789, 15758, 15749, 15757, 15783, 15770, 15807, 15809, 15823, 15796, 15796, 15789, 15774, 15763, 15756, 15750, 15750, 15755, 15755, 15772, 15770, 15781, 15781, 15786, 15794, 15799, 15796, 15796, 15808, 15813, 15804, 15808, 15811, 15818, 15799, 15803, 15826, 15805, 15821, 15827, 15835, 15827, 15826, 15816, 15771, 15797, 15794, 15857, 15876, 15824, 15766, 15770, 15832, 15886, 15898, 15926, 15886, 15863, 15842, 15822, 15795, 15799, 15789, 15803, 15839, 15838, 15868, 15865, 15840, 15845, 15823, 15822, 15805, 15818, 15818, 15792, 15810, 15804, 15805, 15816, 15823, 15835, 15830, 15831, 15840, 15834, 15801, 15816, 15817, 15823, 15822, 15804, 15825, 15819, 15797, 15833, 15819, 15820, 15787, 15755, 15703, 15689, 15717, 15716, 15732, 15651, 15600, 15606, 15646, 15684, 15753, 15747, 15739, 15719, 15719, 15701, 15688, 15688, 15724, 15787, 15837, 15842, 15842, 15848, 15834, 15819, 15787, 15777, 15771, 15767, 15733, 15714, 15742, 15742, 15743, 15728, 15692, 15672, 15696, 15733, 15739, 15752, 15720, 15718, 15711, 15704, 15669, 15665, 15685, 15705, 15716, 15744, 15787, 15777, 15791, 15759, 15782, 15747, 15756, 15722, 15740, 15704, 15730, 15724, 15728, 15734, 15717, 15718, 15717, 15724, 15739, 15720, 15680, 15665, 15671, 15688, 15753, 15705, 15669, 15650, 15650, 15707, 15727, 15752, 15756, 15745, 15736, 15727, 15694, 15682, 15678, 15682, 15676, 15700, 15719, 15736, 15730, 15712, 15701, 15681, 15670, 15658, 15657, 15649, 15641, 15640, 15654, 15642, 15671, 15656, 15656, 15683, 15657, 15657, 15656, 15670, 15638, 15646, 15598, 15589, 15541, 15527, 15510, 15498, 15489, 15517, 15521, 15521, 15504, 15506, 15490, 15479, 15505, 15488, 15447, 15317, 15318, 15318, 15327, 15361, 15414, 15406, 15395, 15371, 15377, 15338, 15348, 15342, 15370, 15398, 15420, 15447, 15462, 15472, 15425, 15423, 15397, 15392, 15384, 15388, 15396, 15406, 15380, 15390, 15394, 15388, 15416, 15392, 15392, 15424, 15427, 15412, 15380, 15359, 15371, 15401, 15428, 15416, 15383, 15400, 15429, 15489, 15533, 15547, 15528, 15528, 15538, 15503, 15501, 15476, 15484, 15506, 15560, 15615, 15687, 15671, 15669, 15644, 15610, 15609, 15597, 15589, 15604, 15617, 15621, 15628, 15569, 15528, 15534, 15569, 15602, 15628, 15634, 15629, 15653, 15632, 15629, 15586, 15610, 15601, 15603, 15623, 15640, 15661, 15646, 15653, 15653, 15652, 15639, 15645, 15646, 15631, 15633, 15633, 15630, 15619, 15549, 15559, 15578, 15592, 15628, 15641, 15597, 15597, 15635, 15637, 15691, 15703, 15715, 15699, 15689, 15722, 15664, 15676, 15630, 15651, 15663, 15674, 15709, 15697, 15699, 15689, 15668, 15671, 15653, 15677, 15661, 15683, 15653, 15677, 15663, 15675, 15668, 15680, 15665, 15687, 15664, 15653, 15676, 15674, 15684, 15681, 15685, 15694, 15685, 15692, 15689, 15693, 15683, 15683, 15656, 15624, 15633, 15635, 15670, 15721, 15695, 15636, 15610, 15634, 15692, 15716, 15708, 15687, 15668, 15652, 15614, 15565, 15515, 15495, 15472, 15467, 15519, 15561, 15599, 15596, 15550, 15498, 15492, 15535, 15582, 15600, 15607, 15554, 15571, 15641, 15655, 15678, 15696, 15646, 15590, 15545, 15571, 15565, 15558, 15537, 15452, 15364, 15404, 15410, 15425, 15435, 15401, 15433, 15495, 15516, 15549, 15532, 15513, 15468, 15468, 15444, 15416, 15421, 15429, 15453, 15512, 15560, 15599, 15595, 15589, 15570, 15553, 15530, 15508, 15480, 15500, 15497, 15524, 15544, 15566, 15514, 15459, 15464, 15484, 15517, 15488, 15453, 15458, 15472, 15425, 15411, 15429, 15451, 15458, 15462, 15472, 15487, 15491, 15502, 15515, 15535, 15526, 15542, 15522, 15536, 15523, 15527, 15527, 15525, 15536, 15540, 15535, 15527, 15516, 15527, 15534, 15542, 15468, 15443, 15446, 15471, 15463, 15478, 15443, 15407, 15437, 15470, 15490, 15495, 15437, 15427, 15440, 15404, 15386, 15369, 15335, 15330, 15356, 15372, 15390, 15362, 15376, 15339, 15330, 15338, 15335, 15344, 15324, 15319, 15346, 15318, 15325, 15329, 15333, 15346, 15360, 15348, 15359, 15364, 15352, 15360, 15350, 15372, 15372, 15369, 15389, 15382, 15375, 15398, 15388, 15398, 15382, 15385, 15381, 15377, 15392, 15379, 15356, 15355, 15351, 15350, 15343, 15305, 15274, 15283, 15290, 15330, 15357, 15340, 15269, 15231, 15237, 15309, 15335, 15351, 15331, 15329, 15318, 15316, 15267, 15290, 15281, 15308, 15333, 15355, 15362, 15352, 15363, 15333, 15322, 15285, 15285, 15295, 15253, 15276, 15265, 15243, 15257, 15223, 15234, 15232, 15204, 15208, 15204, 15171, 15129, 15135, 15149, 15186, 15178, 15126, 15110, 15126, 15208, 15255, 15265, 15218, 15223, 15199, 15176, 15158, 15154, 15158, 15179, 15227, 15263, 15268, 15293, 15309, 15309, 15272, 15251, 15232, 15230, 15255, 15227, 15227, 15202, 15186, 15167, 15178, 15177, 15221, 15227, 15189, 15162, 15180, 15198, 15248, 15224, 15207, 15207, 15196, 15192, 15172, 15153, 15156, 15167, 15175, 15178, 15188, 15173, 15150, 15131, 15083, 15050, 15044, 15038, 15034, 15028, 15022, 15021, 15020, 15036, 15029, 15028, 15045, 15033, 15021, 15041, 15036, 15047, 15037, 15031, 15041, 15037, 15029, 15039, 15033, 15022, 15022, 15012, 14983, 15004, 14978, 14951, 14900, 14900, 14878, 14887, 14888, 14939, 14926, 14883, 14817, 14831, 14847, 14894, 14888, 14892, 14867, 14865, 14836, 14795, 14783, 14785, 14787, 14854, 14839, 14841, 14844, 14859, 14821, 14807, 14811, 14779, 14761, 14741, 14727, 14732, 14712, 14713, 14691, 14700, 14676, 14684, 14681, 14695, 14679, 14664, 14677, 14662, 14653, 14648, 14649, 14618, 14628, 14616, 14613, 14603, 14575, 14542, 14542, 14578, 14601, 14601, 14599, 14516, 14479, 14504, 14556, 14606, 14639, 14608, 14607, 14583, 14582, 14541, 14548, 14573, 14583, 14617, 14656, 14674, 14651, 14647, 14614, 14611, 14607, 14626, 14624, 14596, 14567, 14502, 14489, 14491, 14501, 14435, 14405, 14360, 14259, 14188, 14177, 14223, 14312, 14314, 14284, 14261, 14258, 14260, 14234, 14243, 14232, 14232, 14317, 14317, 14358, 14365, 14417, 14399, 14417, 14400, 14408, 14395, 14370, 14379, 14387, 14391, 14374, 14388, 14387, 14388, 14386, 14405, 14404, 14397, 14413, 14402, 14420, 14414, 14429, 14429, 14429, 14424, 14424, 14449, 14455, 14450, 14466, 14440, 14447, 14431, 14479, 14490, 14518, 14407, 14362, 14341, 14368, 14404, 14445, 14468, 14463, 14429, 14438, 14394, 14380, 14377, 14382, 14397, 14424, 14428, 14428, 14404, 14426, 14415, 14412, 14380, 14381, 14388, 14359, 14375, 14377, 14379, 14378, 14369, 14384, 14399, 14378, 14387, 14384, 14393, 14437, 14432, 14428, 14414, 14420, 14408, 14410, 14409, 14383, 14346, 14323, 14338, 14359, 14395, 14340, 14273, 14229, 14221, 14263, 14296, 14294, 14291, 14248, 14243, 14223, 14200, 14192, 14195, 14195, 14227, 14249, 14265, 14275, 14279, 14278, 14238, 14252, 14222, 14221, 14207, 14218, 14192, 14213, 14206, 14200, 14207, 14207, 14190, 14181, 14166, 14165, 14191, 14214, 14161, 14145, 14145, 14216, 14255, 14293, 14264, 14258, 14238, 14184, 14149, 14114, 14107, 14114, 14105, 14125, 14140, 14131, 14132, 14121, 14098, 14081, 14097, 14075, 14098, 14091, 14100, 14069, 14048, 14033, 14046, 14080, 14127, 14107, 14051, 14051, 14031, 14082, 14101, 14126, 14136, 14116, 14120, 14079, 14071, 14059, 14046, 14056, 14072, 14097, 14125, 14123, 14115, 14129, 14119, 14112, 14125, 14101, 14090, 14088, 14091, 14108, 14085, 14120, 14099, 14131, 14126, 14112, 14138, 14142, 14154, 14125, 14129, 14152, 14149, 14134, 14126, 14136, 14146, 14144, 14151, 14133, 14103, 14083, 14083, 14105, 14098, 14132, 14154, 14108, 14052, 14020, 14069, 14104, 14123, 14115, 14089, 14106, 14054, 14044, 14017, 14028, 14050, 14050, 14074, 14063, 14063, 14103, 14077, 14084, 14048, 14070, 14069, 14066, 14047, 14053, 14057, 14075, 14070, 14068, 14080, 14068, 14094, 14086, 14089, 14081, 14102, 14072, 14103, 14086, 14089, 14091, 14095, 14111, 14119, 14103, 14064, 14069, 14070, 14087, 14127, 14093, 14035, 14020, 14026, 14073, 14111, 14116, 14091, 14070, 14050, 14042, 14042, 14015, 14030, 14052, 14081, 14136, 14147, 14163, 14193, 14167, 14166, 14146, 14109, 14101, 14059, 14076, 14086, 14092, 14122, 14110, 14061, 14049, 14072, 14124, 14151, 14176, 14138, 14153, 14096, 14039, 14006, 14002, 14027, 14032, 14055, 14042, 14057, 14052, 14035, 14009, 13973, 13987, 13997, 14010, 14060, 14063, 14045, 14040, 14040, 14075, 14084, 14123, 14118, 14166, 14150, 14141, 14112, 14112, 14111, 14104, 14101, 14150, 14142, 14150, 14161, 14151, 14146, 14113, 14128, 14111, 14110, 14110, 14111, 14105, 14126, 14132, 14124, 14119, 14123, 14132, 14137, 14150, 14154, 14147, 14174, 14155, 14163, 14158, 14179, 14174, 14172, 14127, 14140, 14140, 14182, 14193, 14229, 14168, 14138, 14128, 14189, 14219, 14232, 14232, 14225, 14196, 14205, 14176, 14147, 14138, 14135, 14161, 14160, 14179, 14202, 14206, 14201, 14209, 14177, 14169, 14157, 14159, 14132, 14145, 14137, 14085, 14055, 14040, 14016, 14007, 13994, 14042, 14042, 14060, 14052, 14074, 14085, 14077, 14099, 14085, 14123, 14117, 14080, 14058, 14054, 14058, 14082, 14066, 14009, 13968, 14010, 14010, 14067, 14142, 14128, 14117, 14127, 14109, 14104, 14096, 14128, 14153, 14153, 14209, 14243, 14268, 14243, 14231, 14220, 14192, 14157, 14141, 14111, 14126, 14103, 14127, 14141, 14096, 14064, 14043, 14082, 14103, 14146, 14116, 14131, 14131, 14132, 14106, 14060, 14080, 14090, 14119, 14132, 14153, 14165, 14171, 14169, 14145, 14142, 14129, 14120, 14112, 14113, 14126, 14118, 14122, 14124, 14137, 14137, 14137, 14148, 14145, 14159, 14140, 14163, 14144, 14164, 14158, 14170, 14177, 14188, 14190, 14188, 14179, 14195, 14188, 14191, 14180, 14206, 14164, 14178, 14192, 14186, 14133, 14152, 14139, 14163, 14185, 14210, 14133, 14098, 14100, 14156, 14168, 14180, 14170, 14137, 14138, 14115, 14089, 14100, 14093, 14097, 14115, 14130, 14137, 14137, 14141, 14130, 14112, 14065, 14045, 14029, 14042, 14028, 14032, 14026, 14009, 14009, 13996, 14028, 14014, 14002, 14017, 14009, 14007, 14002, 14005, 13993, 14004, 13985, 14013, 14008, 14006, 14008, 13986, 14014, 13990, 13985, 13927, 13944, 13961, 13990, 14014, 13973, 13933, 13933, 13958, 14025, 14043, 14024, 13998, 14004, 13947, 13954, 13909, 13932, 13908, 13957, 13975, 14000, 13995, 14002, 13953, 13959, 13912, 13912, 13915, 13901, 13895, 13855, 13858, 13823, 13784, 13763, 13708, 13718, 13725, 13749, 13792, 13763, 13728, 13710, 13753, 13790, 13828, 13831, 13827, 13840, 13808, 13777, 13769, 13762, 13773, 13780, 13836, 13836, 13826, 13828, 13842, 13817, 13817, 13807, 13795, 13795, 13820, 13801, 13814, 13805, 13803, 13819, 13831, 13823, 13823, 13830, 13812, 13840, 13842, 13838, 13827, 13836, 13848, 13835, 13835, 13844, 13842, 13842, 13847, 13838, 13864, 13852, 13851, 13858, 13842, 13817, 13823, 13828, 13869, 13904, 13874, 13834, 13788, 13843, 13886, 13947, 13943, 13964, 13921, 13934, 13892, 13878, 13859, 13880, 13880, 13928, 13924, 13942, 13940, 13939, 13922, 13904, 13903, 13900, 13892, 13880, 13882, 13860, 13878, 13870, 13866, 13888, 13888, 13873, 13875, 13881, 13870, 13893, 13879, 13884, 13884, 13883, 13877, 13890, 13908, 13887, 13896, 13874, 13873, 13869, 13850, 13883, 13881, 13922, 13862, 13841, 13825, 13891, 13933, 13952, 13956, 13943, 13938, 13906, 13909, 13878, 13895, 13927, 13950, 14001, 14040, 14015, 14022, 13979, 13985, 13953, 13946, 13946, 13911, 13900, 13887, 13878, 13887, 13925, 13911, 13851, 13802, 13824, 13843, 13892, 13896, 13887, 13887, 13893, 13877, 13868, 13860, 13838, 13846, 13852, 13882, 13893, 13906, 13901, 13924, 13915, 13892, 13903, 13874, 13875, 13871, 13859, 13866, 13873, 13850, 13871, 13874, 13879, 13875, 13867, 13892, 13873, 13880, 13863, 13884, 13879, 13864, 13856, 13864, 13858, 13873, 13866, 13823, 13798, 13812, 13801, 13837, 13872, 13872, 13792, 13764, 13758, 13813, 13847, 13863, 13851, 13840, 13811, 13798, 13775, 13770, 13746, 13783, 13799, 13802, 13825, 13805, 13816, 13817, 13785, 13781, 13764, 13743, 13759, 13747, 13760, 13758, 13755, 13746, 13757, 13765, 13760, 13767, 13762, 13765, 13776, 13788, 13774, 13773, 13785, 13756, 13780, 13758, 13768, 13752, 13753, 13728, 13694, 13674, 13661, 13660, 13685, 13709, 13657, 13613, 13595, 13595, 13629, 13656, 13702, 13678, 13689, 13643, 13650, 13627, 13627, 13627, 13656, 13686, 13719, 13763, 13775, 13761, 13759, 13751, 13749, 13719, 13732, 13731, 13725, 13716, 13728, 13735, 13733, 13719, 13708, 13711, 13679, 13702, 13704, 13717, 13650, 13607, 13617, 13649, 13692, 13669, 13659, 13655, 13639, 13622, 13613, 13595, 13592, 13592, 13584, 13598, 13609, 13625, 13609, 13612, 13606, 13605, 13601, 13587, 13569, 13554, 13542, 13534, 13537, 13519, 13560, 13556, 13549, 13559, 13566, 13584, 13593, 13576, 13578, 13576, 13587, 13613, 13597, 13592, 13582, 13596, 13590, 13598, 13590, 13532, 13536, 13521, 13543, 13569, 13558, 13510, 13469, 13505, 13534, 13594, 13593, 13571, 13550, 13537, 13523, 13501, 13495, 13492, 13494, 13527, 13555, 13545, 13545, 13555, 13555, 13531, 13509, 13525, 13491, 13496, 13475, 13495, 13481, 13482, 13472, 13471, 13469, 13470, 13451, 13463, 13449, 13470, 13447, 13455, 13471, 13454, 13461, 13440, 13435, 13398, 13397, 13405, 13436, 13464, 13422, 13395, 13410, 13451, 13483, 13514, 13538, 13493, 13490, 13434, 13448, 13429, 13430, 13475, 13480, 13531, 13539, 13539, 13553, 13544, 13505, 13515, 13501, 13479, 13467, 13458, 13454, 13446, 13457, 13476, 13473, 13444, 13436, 13464, 13507, 13514, 13527, 13499, 13525, 13502, 13495, 13463, 13477, 13487, 13520, 13522, 13537, 13533, 13551, 13537, 13531, 13511, 13500, 13512, 13506, 13497, 13494, 13497, 13483, 13491, 13502, 13498, 13505, 13514, 13523, 13506, 13530, 13531, 13527, 13523, 13541, 13527, 13540, 13530, 13538, 13538, 13537, 13537, 13475, 13498, 13476, 13518, 13545, 13532, 13483, 13458, 13487, 13536, 13549, 13539, 13527, 13505, 13505, 13480, 13466, 13454, 13451, 13474, 13494, 13510, 13514, 13507, 13505, 13480, 13480, 13476, 13467, 13459, 13456, 13465, 13470, 13454, 13483, 13456, 13458, 13466, 13473, 13480, 13458, 13472, 13453, 13480, 13471, 13486, 13466, 13466, 13498, 13470, 13482, 13474, 13503, 13486, 13451, 13425, 13420, 13439, 13472, 13493, 13448, 13428, 13454, 13502, 13542, 13537, 13534, 13531, 13515, 13520, 13472, 13489, 13498, 13524, 13560, 13574, 13600, 13577, 13579, 13541, 13562, 13527, 13530, 13529, 13529, 13528, 13513, 13503, 13493, 13492, 13526, 13519, 13540, 13504, 13486, 13495, 13528, 13530, 13540, 13518, 13505, 13506, 13494, 13494, 13474, 13452, 13458, 13492, 13512, 13518, 13562, 13554, 13554, 13553, 13540, 13529, 13528, 13522, 13521, 13519, 13515, 13528, 13536, 13536, 13544, 13535, 13546, 13526, 13550, 13536, 13551, 13551, 13553, 13555, 13548, 13559, 13560, 13574, 13551, 13568, 13561, 13564, 13582, 13564, 13565, 13530, 13525, 13535, 13544, 13579, 13585, 13585, 13539, 13518, 13517, 13557, 13593, 13603, 13575, 13547]}server=223.130.142.8:5000//socket.io/ client=210.90.113.200:65181 socket shutdown error: [Errno 9] Bad file descriptorserver=223.130.142.8:5000//socket.io/ client=210.90.113.200:65156 socket shutdown error: [Errno 9] Bad file descriptorserver=223.130.142.8:5000//socket.io/ client=210.90.113.200:65158 socket shutdown error: [Errno 9] Bad file descriptorserver=223.130.142.8:5000//socket.io/ client=210.90.113.200:65166 socket shutdown error: [Errno 9] Bad file descriptorserver=223.130.142.8:5000//socket.io/ client=210.90.113.200:65171 socket shutdown error: [Errno 9] Bad file descriptorserver=223.130.142.8:5000//socket.io/ client=210.90.113.200:65161 socket shutdown error: [Errno 9] Bad file descriptorserver=223.130.142.8:5000//socket.io/ client=210.90.113.200:65159 socket shutdown error: [Errno 9] Bad file descriptorserver=223.130.142.8:5000//socket.io/ client=210.90.113.200:65165 socket shutdown error: [Errno 9] Bad file descriptorserver=223.130.142.8:5000//socket.io/ client=210.90.113.200:65162 socket shutdown error: [Errno 9] Bad file descriptorserver=223.130.142.8:5000//socket.io/ client=210.90.113.200:65167 socket shutdown error: [Errno 9] Bad file descriptorserver=223.130.142.8:5000//socket.io/ client=210.90.113.200:65225 socket shutdown error: [Errno 9] Bad file descriptor[2024-07-17 13:49:11 +0900] [310960] [INFO] Handling signal: hup
[2024-07-17 13:49:11 +0900] [310960] [INFO] Hang up: Master
[2024-07-17 13:49:11 +0900] [310960] [ERROR] Worker (pid:310963) was sent SIGHUP!
[2024-07-17 13:49:11 +0900] [312121] [INFO] Booting worker with pid: 312121
server=223.130.142.8:5000//socket.io/ client=58.77.68.80:49898 socket shutdown error: [Errno 9] Bad file descriptorReceived data: {'ir': [6692, 6299, 6288, 6218, 6106, 6048, 5753, 5587, 5136, 4934, 4707, 4575, 4274, 3963, 4035, 4289, 4027, 4078, 4306, 4027, 3170, 2587, 1315, 65081, 63966, 63336, 62559, 61044, 59630, 58482, 57458, 56891, 56188, 55524, 54805, 54334, 53755, 53156, 52555, 51998, 51597, 51597, 51246, 51118, 51283, 51456, 51627, 51601, 51562, 51541, 51485, 51542, 51611, 51599, 51589, 51652, 51608, 51546, 51424, 51395, 51343, 51123, 50997, 51051, 51297, 51347, 51342, 51517, 51612, 51736, 51927, 52051, 52082, 52055, 52122, 52130, 52118, 52194, 52094, 52098, 51984, 51735, 51563, 51344, 51021, 50648, 50304, 49848, 49329, 48799, 48185, 47833, 47541, 47067, 46350, 46350, 45585, 44961, 44453, 43950, 43580, 42696, 42054, 41139, 40559, 39846, 39846, 39299, 38692, 38240, 37859, 37455, 36872, 36611, 36282, 36131, 35976, 35833, 35572, 35459, 35294, 35368, 35426, 35708, 35873, 35945, 36001, 36023, 35985, 35899, 35754, 35667, 35607, 35662, 35907, 36188, 36397, 36596, 36862, 37067, 37303, 37951, 39595, 41210, 42388, 43406, 44091, 44775, 46823, 48554, 50922, 53000, 53460, 53729, 54531, 55415, 56587, 56587, 59186, 61723, 62891, 64231, 63779, 59145, 54906, 52924, 52770, 53044, 53515, 53467, 53937, 54705, 55621, 56420, 56752, 58286, 58387, 58880, 60034, 61091, 61454, 62377, 63397, 64125, 65016, 1554, 2688, 2928, 3593, 3960, 4386, 5327, 5424, 5529, 6321, 7051, 7103, 7396, 7942, 7590, 6946, 6445, 6281, 6094, 5943, 5626, 5323, 4984, 4913, 4908, 4572, 4198, 4013, 4104, 4324, 4690, 5706, 5750, 5261, 5203, 5203, 5431, 5660, 5641, 5452, 5555, 5496, 5118, 4390, 3975, 3505, 3111, 2709, 2222, 1938, 2057, 2257, 2288, 2494, 2593, 2788, 2796, 2929, 3372, 3924, 3916, 3679, 3249, 3045, 2833, 3083, 2426, 1647, 889, 93, 65499, 64657, 64073, 64016, 63694, 62975, 62224, 62178, 62328, 62224, 62214, 62282, 62549, 62123, 61963, 62162, 62253, 61738, 61595, 61860, 61860, 61733, 62318, 62481, 62250, 62129, 62279, 62725, 62603, 62368, 62420, 62515, 62678, 62566, 62697, 62797, 62726, 62598, 62385, 62150, 61677, 60942, 61058, 60400, 58842, 58764, 58054, 57913, 58087, 57795, 56800, 56066, 56487, 56303, 55933, 55538, 55195, 54530, 54845, 55092, 54466, 53878, 53748, 54136, 54424, 54498, 54262, 54616, 54926, 55536, 55917, 56164, 56340, 56338, 56602, 56942, 57103, 57235, 57570, 57673, 57639, 57535, 57535, 57994, 58665, 59391, 60575, 60805, 60963, 60503, 59135, 58783, 59133, 59549, 59330, 59101, 59053, 58999, 59226, 58240, 58912, 59388, 58350, 57158, 56433, 55674, 55553, 56547, 57163, 57902, 57887, 58103, 57750, 57148, 56021, 55117, 55021, 54566, 54387, 54180, 54165, 54114, 54129, 54402, 54931, 55430, 56261, 56807, 57081, 57005, 56628, 56159, 55271, 55271, 54943, 56011, 57849, 58536, 58356, 58154, 58395, 58170, 57643, 57841, 58511, 58522, 58787, 58797, 59421, 59852, 59779, 59337, 59323, 59721, 59734, 59496, 60036, 59943, 59851, 60246, 60124, 60447, 60021, 59199, 59281, 59725, 59417, 59306, 59807, 60239, 57582, 54942, 54901, 55260, 56788, 56626, 57072, 57492, 57845, 57686, 58678, 57517, 52265, 43604, 45180, 43343, 40026, 37249, 34234, 32908, 32484, 32510, 32311, 32514, 34040, 37126, 40924, 40924, 43973, 46224, 48723, 52861, 58096, 61719, 61317, 47902, 46690, 47764, 47025, 46663, 45889, 45100, 45008, 43871, 42643, 41997, 41675, 41572, 41512, 41426, 41326, 42013, 41989, 41313, 41014, 40767, 40560, 40460, 40054, 38264, 36720, 35274, 34029, 33522, 32883, 33963, 34853, 35496, 35204, 35361, 35782, 38347, 43424, 48506, 52070, 52070, 54099, 55901, 57296, 55677, 51348, 45741, 44033, 42959, 41665, 40374, 37278, 35723, 35723, 33762, 34647, 40148, 43962, 40877, 37646, 42656, 40560, 36973, 39521, 45656, 52931, 61741, 64660, 64601, 60783, 57956, 54341, 53663, 57855, 57158, 57533, 59129, 60259, 60560, 58888, 54706, 46945, 46681, 46709, 47734, 47992, 47537, 47732, 48027, 47523, 47033, 46684, 46064, 45679, 43764, 43618, 45004, 47733, 50237, 52201, 56448, 60484, 60484, 60225, 59729, 62189, 61160, 59477, 59217, 58703, 59183, 56124, 60718, 63206, 63615, 1019, 2819, 4069, 2162, 1163, 1929, 1314, 65333, 925, 3033, 3631, 4227, 5721, 6491, 6425, 414, 58799, 56166, 53211, 51939, 51773, 51739, 55887, 59867, 61792, 61017, 59075, 60109, 57950, 54707, 48551, 42383, 38402, 37352, 38099, 39354, 43009, 46051, 45071, 45653, 47077, 48182, 49119, 53656, 61875, 63110, 58732, 57394, 60888, 61854, 59372, 57278, 57278, 60497, 61559, 57245, 57211, 54954, 50655, 50633, 55044, 54576, 51141, 45885, 42558, 43955, 47876, 47988, 43152, 37778, 35521, 35548, 37842, 39034, 39117, 43587, 50514, 47108, 44608, 46582, 48495, 50813, 53981, 56204, 56062, 54032, 50329, 47575, 43814, 40876, 39293, 38821, 39020, 38979, 38332, 37549, 37142, 36778, 35441, 33418, 32246, 31690, 31204, 30808, 30808, 30625, 30858, 31230, 31441, 31211, 30860, 30828, 30835, 30752, 29679, 28598, 28191, 28188, 28213, 28554, 29028, 29047, 28651, 28542, 28401, 28705, 29350, 29523, 29978, 31146, 32792, 33793, 34743, 35645, 37086, 37606, 38297, 40555, 44693, 47941, 49355, 50906, 51263, 51349, 51906, 52896, 54174, 56893, 58232, 56903, 55157, 54953, 55237, 54326, 54499, 56675, 55225, 51884, 51040, 50759, 51129, 50634, 47998, 47998, 46610, 45463, 47627, 50906, 50906, 50851, 50314, 49634, 50207, 50573, 48894, 44905, 43162, 42626, 43197, 45213, 48194, 52243, 53999, 52024, 47211, 43604, 42316, 41614, 40400, 39054, 39177, 40190, 43126, 47528, 51867, 52669, 51697, 50603, 51542, 56097, 59150, 58630, 58541, 59092, 58254, 56969, 55969, 56020, 56043, 54472, 51607, 47395, 46399, 45162, 42511, 42511, 39856, 37371, 35147, 34020, 33421, 33274, 33919, 34874, 35510, 37526, 40065, 40898, 41579, 39968, 35728, 33718, 32632, 32172, 32200, 32565, 33654, 35509, 37423, 40378, 44790, 49399, 52661, 54410, 55854, 58536, 58502, 55453, 55204, 57816, 61255, 64312, 3591, 6559, 9317, 10915, 11759, 12031, 12157, 12339, 12792, 13074, 13672, 14427, 4096, 21469, 6242, 2766, 1923, 1561, 1644, 1596, 1617, 1683, 1647, 1628, 1576, 1576, 1518, 1517, 1473, 1473, 1432, 1385, 1395, 1346, 1367, 1334, 1301, 1336, 1286, 1311, 1278, 1263, 1309, 1263, 1271, 1269, 1256, 1301, 1259, 1253, 1264, 1255, 1295, 1256, 1247, 1254, 1247, 1275, 1250, 1243, 1269, 1246, 1265, 1252, 1249, 1280, 1253, 1273, 1279, 1301, 1359, 1392, 1535, 1843, 2301, 2301, 3017, 5129, 39806, 2121, 2579, 4982, 13253, 49455, 12288, 2966, 12008, 12081, 6830, 6848, 7467, 8231, 3865, 3650, 3721, 3602, 3259, 3365, 4056, 4601, 4669, 4533, 3906, 3159, 2770, 2572, 2480, 2234, 2017, 1912, 1875, 1934, 1974, 2016, 2146, 2309, 2493, 2565, 2504, 2263, 1906, 1704, 1527, 1417, 1391, 1380, 1381, 1326, 1361, 1376, 1384, 1417, 1389, 1388, 1378, 1378, 1353, 1356, 1350, 1355, 1367, 1365, 1380, 1367, 1364, 1380, 1398, 1424, 1412, 1400, 1407, 1381, 1377, 1369, 1374, 1409, 1420, 1450, 1469, 1479, 1513, 1499, 1497, 1469, 1429, 1418, 1389, 1401, 1393, 1384, 1398, 1389, 1400, 1395, 1393, 1401, 1395, 1415, 1400, 1379, 1385, 1371, 1368, 1332, 1332, 1312, 1322, 1311, 1328, 1328, 1332, 1345, 1313, 1337, 1337, 1399, 1460, 1414, 1377, 1351, 1343, 1390, 1451, 1512, 1493, 1516, 1623, 1710, 1798, 1812, 1815, 1896, 2130, 2438, 2353, 2072, 2116, 2140, 1611, 1390, 1370, 1404, 1386, 1382, 1373, 1351, 1345, 1313, 1304, 1309, 1303, 1336, 1399, 1442, 1430, 1398, 1410, 1403, 1402, 1417, 1393, 1402, 1390, 1375, 1375, 1378, 1346, 1355, 1349, 1355, 1399, 1359, 1370, 1363, 1350, 1364, 1343, 1356, 1345, 1340, 1358, 1344, 1362, 1350, 1342, 1352, 1346, 1370, 1367, 1371, 1389, 1381, 1396, 1388, 1384, 1405, 1397, 1408, 1407, 1404, 1419, 1408, 1422, 1420, 1415, 1432, 1421, 1435, 1434, 1420, 1433, 1422, 1417, 1395, 1369, 1373, 1350, 1353, 1334, 1317, 1330, 1304, 1321, 1321, 1335, 1386, 1412, 1480, 1541, 1541, 1533, 1586, 2224, 2982, 2995, 2881, 2868, 2974, 3057, 2940, 2660, 2687, 2769, 2913, 3226, 3375, 3480, 3797, 4163, 4623, 5168, 5810, 6215, 6281, 6122, 5979, 6560, 7420, 7549, 6174, 3619, 2322, 1943, 1716, 1560, 1468, 1472, 1471, 1441, 1445, 1399, 1381, 1368, 1378, 1406, 1385, 1422, 1431, 1431, 1428, 1424, 1396, 1381, 1366, 1372, 1388, 1374, 1386, 1356, 1350, 1381, 1378, 1402, 1398, 1399, 1421, 1412, 1428, 1430, 1413, 1414, 1385, 1384, 1363, 1339, 1348, 1332, 1335, 1326, 1311, 1318, 1300, 1296, 1280, 1263, 1287, 1280, 1297, 1293, 1284, 1296, 1272, 1281, 1277, 1274, 1292, 1272, 1278, 1278, 1280, 1300, 1282, 1281, 1284, 1276, 1288, 1288, 1273, 1270, 1268, 1268, 1284, 1263, 1257, 1260, 1254, 1263, 1256, 1252, 1266, 1258, 1275, 1279, 1282, 1298, 1280, 1292, 1283, 1270, 1284, 1260, 1270, 1262, 1252, 1262, 1249, 1265, 1258, 1251, 1264, 1250, 1261, 1250, 1245, 1257, 1244, 1259, 1252, 1244, 1257, 1250, 1266, 1257, 1253, 1270, 1267, 1267, 1292, 1295, 1311, 1337, 1334, 1357, 1356, 1354, 1371, 1352, 1375, 1383, 1379, 1388, 1355, 1360, 1359, 1344, 1387, 1445, 1520, 1557, 1559, 1577, 1551, 1699, 2863, 4567, 6543, 8154, 9049, 8898, 6385, 3987, 3145, 2693, 2291, 2070, 2074, 2253, 2499, 2733, 2857, 2944, 2779, 2653, 2467, 2383, 2445, 2471, 2550, 3074, 4061, 5196, 6154, 7682, 14289, 34244, 51151, 51151, 58127, 32768, 9454, 3788, 2030, 1708, 1625, 1606, 1587, 1604, 1685, 1930, 1949, 1889, 1813, 1689, 1479, 1382, 1343, 1346, 1329, 1307, 1315, 1296, 1308, 1293, 1284, 1303, 1346, 1748, 2034, 2081, 2179, 2279, 2189, 2042, 1863, 1898, 1994, 2189, 2289, 2185, 2085, 2035, 2007, 2008, 2081, 2081, 2246, 2513, 3011, 3408, 3784, 4216, 4963, 5574, 6689, 8258, 9504, 8816, 7540, 5578, 3306, 2341, 1832, 1631, 1491, 1371, 1327, 1280, 1288, 1279, 1273, 1303, 1277, 1293, 1284, 1279, 1316, 1290, 1291, 1295, 1294, 1333, 1319, 1324, 1335, 1333, 1359, 1347, 1351, 1390, 1446, 1486, 1468, 1454, 1452, 1451, 1448, 1429, 1409, 1420, 1396, 1374, 1335, 1321, 1321, 1342, 1325, 1334, 1324, 1309, 1324, 1301, 1327, 1320, 1303, 1307, 1272, 1291, 1262, 1244, 1260, 1244, 1310, 1257, 1250, 1280, 1265, 1306, 1268, 1256, 1284, 1259, 1295, 1275, 1272, 1312, 1304, 1370, 1396, 1402, 1439, 1422, 1474, 1497, 1507, 1560, 1560, 1606, 1628, 1627, 1683, 1706, 1778, 1771, 1706, 1706, 1736, 1772, 1785, 1803, 1792, 1829, 1801, 1897, 2076, 2228, 2577, 2465, 2532, 2443, 2278, 2187, 2105, 2059, 2039, 2017, 2028, 2004, 2014, 2073, 2096, 2122, 2068, 2043, 2039, 2001, 1988, 1934, 1898, 1901, 1860, 1859, 1821, 1794, 1827, 1829, 1876, 1888, 1890, 1945, 1956, 2020, 2029, 2022, 2054, 2043, 2067, 2064, 2072, 2097, 2065, 2075, 2049, 2049, 2004, 1973, 1880, 1779, 1605, 1474, 1402, 1322, 1321, 1260, 1241, 1261, 1228, 1266, 1230, 1221, 1256, 1226, 1277, 1246, 1224, 1260, 1236, 1262, 1243, 1226, 1238, 1230, 1245, 1246, 1232, 1246, 1232, 1244, 1238, 1225, 1242, 1223, 1242, 1232, 1219, 1244, 1220, 1234, 1226, 1217, 1234, 1219, 1229, 1229, 1224, 1220, 1236, 1225, 1225, 1236, 1238, 1273, 1286, 1312, 1352, 1408, 1549, 1847, 2633, 3357, 3658, 4022, 4400, 5280, 5453, 5632, 7406, 10799, 14617, 20300, 23391, 18267, 14539, 14686, 15767, 16404, 19090, 24606, 21909, 19427, 19118, 18466, 18341, 17901, 18742, 19918, 21574, 21601, 21188, 20965, 19953, 19128, 18946, 17457, 18618, 19638, 20886, 20835, 21093, 23326, 24909, 26117, 26792, 26792, 26470, 27249, 33125, 32878, 30625, 28909, 28133, 25256, 20158, 20134, 21331, 20658, 26191, 30499, 22083, 14073, 8849, 5405, 3246, 2046, 1688, 1656, 1696, 1811, 1943, 2106, 2358, 2574, 2751, 2951, 3053, 2999, 2942, 2986, 3131, 3408, 3848, 4695, 6299, 9920, 20307, 23522, 34224, 63196, 14031, 20032, 33086, 33086, 28590, 28590, 21693, 20975, 21223, 64344, 60868, 58249, 53144, 49399, 46826, 45051, 45051, 44900, 45229, 46253, 46684, 46404, 45498, 45085, 44973, 45087, 45103, 44766, 44695, 44272, 43899, 43487, 42951, 42254, 41458, 40290, 38404, 37833, 37625, 36871, 36294, 35824, 35622, 35708, 35759, 35917, 36482, 36957, 38690, 41758, 44169, 44813, 43870, 42835, 42322, 42547, 42031, 40721, 39701, 39305, 38779, 38497, 38489, 38489, 38374, 38248, 38241, 38883, 38224, 37367, 36671, 36485, 36656, 36405, 36138, 35630, 34939, 34295, 33414, 33054, 32767, 32423, 32171, 31899, 31622, 31576, 31713, 31945, 32061, 32181, 32188, 32125, 32061, 32073, 32169, 32328, 32372, 32484, 32628, 32826, 32957, 33159, 33522, 33840, 34019, 33947, 33783, 33655, 33653, 33846, 34279, 34546, 34782, 34976, 35179, 35257, 35345, 35791, 36282, 36476, 36313, 36068, 35926, 35912, 35912, 35713, 35581, 35588, 35723, 35891, 35958, 35969, 35957, 36023, 35928, 35682, 35172, 35132, 35108, 35101, 35152, 35210, 35251, 35122, 34931, 34540, 34252, 34164, 34100, 33973, 33913, 33884, 33978, 33942, 33911, 33837, 33888, 34179, 34957, 35644, 36543, 37668, 37996, 38646, 38973, 39281, 39524, 39762, 40039, 40321, 40379, 40499, 40378, 39938, 39717, 39189, 39189, 39350, 39645, 39858, 39835, 39669, 39836, 40274, 40801, 40918, 41172, 41024, 40772, 40561, 40477, 40440, 40493, 40519, 40428, 40659, 40521, 40270, 39539, 39100, 38998, 39264, 40340, 41089, 40891, 40704, 41920, 42926, 42653, 42522, 42429, 42624, 42911, 42743, 42830, 43243, 42726, 40483, 38781, 36951, 36296, 35590, 35594, 35510, 35418, 35315, 35352, 35316, 35259, 35352, 35379, 35292, 34836, 34234, 33651, 33291, 33116, 33012, 33107, 33644, 34593, 35339, 35772, 36140, 36339, 36553, 37267, 37635, 37935, 38292, 38460, 38610, 38758, 38967, 39332, 39672, 40431, 40431, 40705, 40730, 40684, 40583, 39967, 39759, 39538, 38602, 37807, 37752, 37900, 38224, 38634, 38839, 38935, 38766, 38797, 38910, 38513, 38397, 38408, 38441, 38524, 38606, 38596, 38514, 38400, 38313, 38265, 38210, 37826, 37453, 37231, 36841, 36454, 36080, 35866, 35822, 35599, 35251, 34829, 34741, 34749, 34714, 34691, 34753, 34753, 34814, 34730, 34417, 34303, 34291, 34276, 34230, 34208, 34189, 34088, 34051, 33995, 33995, 33894, 33917, 34016, 34058, 34072, 34064, 34030, 33983, 34025, 34124, 34236, 33990, 33765, 33483, 32928, 32857, 32938, 32996, 32990, 32967, 33099, 33442, 33959, 34379, 35100, 35712, 36200, 36562, 36956, 37191, 36774, 35826, 35470, 35318, 35325, 35152, 35170, 35201, 35124, 35162, 35200, 34980, 34619, 33987, 33528, 33409, 33309, 33309, 32578, 32138, 31626, 31249, 30994, 31414, 34158, 39777, 44684, 46755, 46900, 44771, 42123, 41458, 41661, 41556, 41247, 41078, 41148, 42673, 45973, 47294, 48316, 47728, 44704, 41943, 41093, 40913, 40697, 40969, 41576, 42616, 43189, 45195, 47480, 48131, 48203, 48152, 48413, 48481, 48155, 48000, 47716, 47435, 47383, 47411, 47410, 47408, 47408, 47572, 47626, 47510, 47529, 47338, 47131, 46991, 46936, 46789, 46789, 46674, 46694, 46684, 46719, 46734, 46753, 46782, 46637, 46482, 46444, 46379, 46336, 46367, 46417, 46475, 46600, 46719, 46893, 47050, 47163, 47275, 47392, 47475, 47553, 47597, 47621, 47593, 47599, 47596, 47571, 47573, 47607, 47685, 47795, 47852, 47911, 48019, 48252, 48410, 48675, 49162, 49637, 50194, 50907, 51667, 52151, 52151, 52444, 52837, 52837, 52716, 53173, 53554, 54084, 54524, 54428, 54932, 55413, 55865, 55947, 55578, 55158, 54612, 54437, 54145, 54145, 54058, 53969, 53688, 53288, 52889, 52474, 52293, 52221, 52308, 52345, 52488, 52555, 52164, 51433, 50971, 50867, 50934, 51284, 51511, 51638, 51530, 51200, 51252, 51385, 51303, 51743, 51988, 49325, 45772, 43692, 42572, 41874, 41916, 42393, 42737, 42967, 42716, 42604, 42742, 43116, 43220, 44025, 44025, 45846, 47374, 49711, 53167, 53290, 52166, 50131, 48253, 46939, 45895, 45285, 45048, 45469, 45979, 45892, 45709, 45736, 45533, 44925, 44809, 44531, 43212, 41720, 40740, 39765, 39090, 37497, 35209, 32996, 31611, 30336, 30703, 31103, 31467, 32071, 32586, 33143, 33174, 32424, 32241, 32597, 33064, 34553, 38481, 40824, 42732, 43999, 44655, 44655, 45039, 44953, 44587, 44210, 43997, 44175, 43967, 44033, 44132, 44031, 44217, 44841, 45949, 46362, 44392, 39890, 38676, 37965, 38220, 40434, 42633, 43616, 44861, 43537, 42899, 43205, 43768, 44235, 46006, 49233, 59341, 65415, 65444, 62229, 57868, 56301, 56145, 56752, 57024, 56656, 56376, 55102, 54096, 53233, 52754, 51779, 51820, 48958, 45586, 43393, 42828, 43418, 44390, 45428, 47197, 50304, 53281, 54599, 55257, 55257, 55414, 55342, 55324, 54561, 54572, 54942, 55130, 55452, 56011, 56284, 56797, 56984, 56596, 56088, 55261, 54574, 54440, 53731, 53455, 53685, 54069, 54515, 55093, 55317, 55324, 55334, 55276, 55145, 54916, 54582, 53780, 52757, 51993, 52117, 52401, 52776, 52822, 53136, 53312, 51711, 49184, 47897, 47761, 47823, 47171, 45926, 45229, 45229, 45197, 45008, 44669, 44238, 43790, 43425, 43120, 43041, 42924, 42765, 42654, 42504, 42391, 42097, 41997, 42100, 41713, 42047, 43203, 44553, 46738, 48524, 49249, 49383, 48927, 48311, 48150, 48288, 48761, 49262, 49948, 50708, 50994, 51546, 52268, 52760, 52885, 52363, 51753, 51286, 50579, 50071, 49812, 50284, 51349, 52819, 53613, 54616, 54534, 55097, 54579, 53671, 53147, 53511, 54161, 54714, 55460, 55616, 55575, 55167, 55167, 54058, 52691, 51670, 51355, 50898, 50737, 50728, 50659, 50816, 50872, 50546, 50198, 50507, 51698, 53916, 56755, 60112, 62712, 63515, 63218, 63834, 65061, 62908, 58090, 56642, 57039, 57857, 58395, 58793, 59160, 59638, 60314, 60945, 61369, 61497, 61547, 61328, 60753, 59569, 58573, 58607, 58764, 58238, 57208, 56728, 56907, 57950, 57950, 59694, 61164, 61470, 61404, 61507, 61722, 61975, 62010, 61962, 61805, 61606, 61439, 61250, 61132, 60957, 60802, 60627, 60619, 60717, 60915, 61095, 61225, 61204, 61204, 61234, 61144, 60859, 60384, 59663, 58994, 58328, 57829, 57342, 56898, 56475, 56290, 56209, 56390, 56747, 56866, 56846, 56724, 56609, 56479, 56317, 56068, 55864, 55733, 55623, 55606, 55508, 54663, 53619, 53659, 54019, 54255, 54140, 53787, 53485, 53485, 53781, 53942, 53788, 54136, 54497, 54772, 55320, 55900, 56514, 57107, 58712, 61493, 64455, 985, 1627, 488, 64129, 63017, 61947, 61993, 62864, 65515, 87, 65018, 65017, 64697, 63167, 61710, 58567, 57895, 59226, 59479, 59425, 57094, 56235, 56630, 53133, 48755, 45061, 42614, 42216, 42819, 43336, 44048, 44953, 45700, 45622, 45331, 45992, 46965, 48567, 50462, 51710, 51710, 52168, 52922, 53117, 53079, 53085, 53037, 53009, 53302, 53662, 53727, 56043, 55813, 55300, 54561, 54561, 53317, 51136, 49810, 48793, 47361, 44355, 41415, 40354, 40198, 40461, 41262, 41803, 44778, 53288, 255, 5193, 2258, 914, 2262, 1313, 78, 65443, 382, 3371, 4990, 4542, 3964, 17622, 23558, 15194, 5395, 58761, 50039, 46294, 45312, 45152, 45333, 45585, 45895, 46021, 46223, 46568, 47087, 47537, 47978, 48787, 50178, 50339, 50331, 49685, 49563, 51741, 51741, 52222, 51708, 51731, 51222, 51431, 50812, 49865, 49390, 49186, 49451, 49439, 49853, 50464, 50997, 51761, 52634, 53170, 53106, 53128, 53764, 54023, 54200, 56797, 59982, 60765, 62502, 64802, 586, 1016, 1600, 4968, 9615, 4048, 62413, 57233, 54124, 52194, 51215, 49605, 48071, 47672, 47434, 47317, 46826, 46329, 45810, 46092, 46149, 45833, 45478, 46037, 45630, 45588, 46798, 49005, 50834, 52530, 53680, 54065, 55039, 56186, 56367, 56873, 56873, 57168, 57855, 58963, 58773, 54284, 49689, 48120, 47532, 46050, 44338, 42618, 41044, 40231, 39532, 39217, 39862, 40839, 41244, 41492, 41503, 41566, 41709, 41214, 40898, 40825, 40716, 40422, 40061, 39860, 39775, 39640, 39548, 39259, 39067, 39130, 39121, 38887, 38754, 38892, 38868, 38854, 38784, 38629, 38737, 38828, 38786, 38796, 38671, 38671, 38678, 38632, 38575, 38081, 37796, 37870, 38052, 38153, 38131, 37958, 37814, 37692, 37739, 37735, 37679, 37575, 37335, 37216, 37217, 37308, 37360, 37460, 37664, 37808, 37894, 37944, 37933, 37823, 37803, 37918, 37866, 37841, 37772, 37626, 37571, 37611, 37556, 37357, 37045, 36841, 36704, 36401, 35960, 35283, 34375, 33655, 33123, 32780, 32506, 32389, 32476, 32523, 32575, 32606, 32551, 33037, 32771, 32300, 31788, 31342, 31015, 30901, 30901, 30807, 30575, 30320, 30178, 30087, 30300, 30297, 30305, 30489, 30469, 30433, 30222, 30214, 30302, 30518, 30841, 30968, 30861, 30685, 30709, 31191, 31681, 32322, 33182, 33596, 33961, 34053, 34726, 36338, 37888, 38590, 38617, 39107, 39721, 39764, 39219, 38347, 37420, 36492, 36137, 35836, 35698, 35652, 35487, 35242, 35116, 35229, 35378, 34900, 34371, 34371, 34003, 34003, 33692, 33243, 32961, 32738, 32535, 32340, 32330, 32266, 32114, 32016, 32049, 32144, 32083, 32034, 32005, 31927, 31891, 31844, 31688, 31644, 31745, 31825, 31964, 32139, 32261, 32535, 33088, 33264, 33277, 33403, 33493, 33577, 33705, 33634, 33574, 33669, 33849, 34282, 34916, 35288, 35818, 36215, 36305, 36384, 36527, 36709, 36832, 36982, 37676, 38310, 39070, 39434, 39748, 40589, 41376, 41985, 42028, 41732, 41506, 41416, 41354, 40922, 40431, 40404, 40279], 'red': [28960, 28512, 28522, 28431, 28326, 28293, 27956, 27793, 27317, 27091, 26831, 26711, 26506, 26052, 26171, 26481, 26202, 26280, 26559, 26271, 25373, 24753, 23313, 21364, 20000, 19317, 18477, 16825, 15212, 13951, 12778, 11969, 11143, 10378, 9669, 9097, 8403, 7576, 6817, 6120, 5743, 5743, 5344, 5198, 5401, 5623, 5842, 5833, 5782, 5768, 5717, 5796, 5874, 5869, 5858, 5934, 5916, 5834, 5695, 5646, 5575, 5306, 5167, 5233, 5528, 5595, 5566, 5798, 5899, 6039, 6269, 6425, 6484, 6462, 6548, 6569, 6557, 6677, 6565, 6592, 6435, 6155, 5953, 5674, 5324, 4910, 4488, 3978, 3377, 2702, 1976, 1719, 1448, 1009, 220, 220, 64948, 64197, 63567, 63174, 62800, 61831, 61127, 60002, 59307, 58630, 58630, 57990, 57358, 56884, 56494, 56097, 55467, 55186, 54930, 54832, 54680, 54487, 54176, 54065, 53860, 53971, 54088, 54476, 54695, 54761, 54798, 54825, 54780, 54654, 54464, 54318, 54231, 54298, 54611, 54956, 55212, 55487, 55833, 56088, 56373, 57207, 59334, 61298, 62843, 64017, 64792, 54, 2480, 4406, 7267, 9841, 10443, 10580, 11458, 12445, 13735, 13735, 16640, 19394, 20634, 22084, 21567, 16270, 11068, 8405, 8144, 8397, 8877, 8815, 9377, 10207, 11241, 12087, 12345, 14078, 14143, 14559, 15829, 16984, 17367, 18316, 19416, 20256, 21191, 23494, 24689, 24826, 25558, 25983, 26318, 27091, 27048, 27088, 28008, 28814, 28825, 29100, 29631, 29151, 28357, 27744, 27523, 27278, 27090, 26714, 26340, 25989, 25915, 25876, 25498, 25065, 24848, 25005, 25241, 25647, 26838, 26869, 26289, 26212, 26212, 26433, 26669, 26662, 26435, 26513, 26433, 25987, 25123, 24654, 24105, 23643, 23183, 22644, 22381, 22511, 22751, 22786, 23008, 23109, 23311, 23341, 23493, 24001, 24650, 24642, 24394, 23914, 23720, 23488, 23835, 23102, 22255, 21442, 20555, 20331, 19433, 18773, 18717, 18362, 17618, 16745, 16673, 16862, 16743, 16771, 16835, 17128, 16632, 16427, 16626, 16728, 16105, 15828, 16113, 16113, 15921, 16607, 16785, 16526, 16369, 16519, 17042, 16882, 16580, 16632, 16751, 16979, 16797, 16950, 17050, 16939, 16796, 16500, 16158, 15599, 14680, 14824, 14073, 12306, 12227, 11473, 11306, 11485, 11145, 9922, 9014, 9511, 9316, 8897, 8443, 8038, 7264, 7702, 8154, 7439, 6764, 6757, 7614, 8645, 9199, 9298, 10160, 10729, 11563, 12102, 12444, 12768, 12785, 13134, 13570, 13787, 13939, 14376, 14466, 14440, 14305, 14305, 14862, 15804, 16754, 18388, 18712, 18979, 18388, 16657, 16194, 16626, 17208, 16915, 16630, 16577, 16462, 16805, 15501, 16377, 17018, 15674, 14125, 12993, 11207, 10014, 10692, 10880, 11155, 10474, 10212, 9337, 8305, 6183, 4799, 4577, 4089, 3913, 3649, 3664, 3618, 3744, 4066, 4711, 5235, 6180, 6805, 7147, 7069, 6626, 6143, 5249, 5249, 4979, 6148, 8268, 9153, 9007, 8815, 9057, 8849, 8271, 8576, 9337, 9361, 9636, 9674, 10382, 10774, 10717, 10234, 10246, 10713, 10721, 10463, 11087, 10971, 10928, 11312, 11193, 11538, 11104, 10222, 10299, 10810, 10474, 10337, 10787, 11375, 8585, 5857, 5765, 6104, 7953, 7981, 8532, 9044, 9554, 9356, 10282, 8980, 3279, 58472, 60564, 58563, 54562, 51314, 47549, 45853, 45131, 45194, 44935, 45215, 47296, 51232, 55809, 55809, 59398, 62090, 64970, 4643, 11511, 16163, 16267, 2457, 2031, 3698, 2982, 2589, 1677, 731, 517, 64677, 63213, 62415, 62029, 61906, 61841, 61729, 61611, 62450, 62433, 61587, 61208, 60803, 60546, 60400, 59930, 57768, 55836, 53925, 52368, 51580, 50658, 51924, 52915, 53687, 53372, 53580, 54033, 56869, 62554, 2612, 6572, 6572, 8852, 10810, 12383, 10289, 5202, 64542, 62669, 61463, 60042, 58749, 55244, 53653, 53653, 51182, 52082, 58179, 62678, 59026, 55166, 60749, 58570, 54496, 57377, 64622, 7696, 17670, 20870, 20981, 15826, 11571, 6976, 5913, 10424, 9757, 10223, 12349, 13638, 14065, 12341, 7933, 64577, 64137, 64176, 65348, 132, 65087, 65217, 65507, 64965, 64364, 63927, 63276, 62855, 60497, 60296, 61945, 65087, 2465, 4597, 9175, 13553, 13553, 13245, 12527, 15208, 14052, 12095, 11816, 11245, 11645, 8183, 13002, 15921, 16542, 20208, 22534, 24540, 22889, 21238, 21778, 21149, 19533, 20632, 22699, 23019, 23775, 26128, 27928, 28764, 22691, 13992, 11009, 7679, 6142, 5893, 5608, 9727, 14096, 16232, 15485, 13227, 14129, 11787, 8187, 1094, 59591, 54999, 53960, 54971, 56482, 60676, 64286, 63155, 63786, 65411, 1170, 2202, 7157, 16105, 17087, 11913, 10058, 13928, 15522, 13106, 10761, 10761, 14231, 15088, 9983, 10192, 7845, 3123, 3048, 8049, 7526, 3597, 62940, 59234, 60834, 65182, 65236, 59829, 53842, 51123, 51239, 54014, 55454, 55701, 61243, 4306, 528, 62979, 65205, 1941, 4421, 7977, 10421, 10096, 7741, 3642, 491, 61698, 58311, 56322, 55753, 56008, 55990, 55209, 54369, 53916, 53433, 51873, 49511, 47941, 47251, 46750, 46299, 46299, 46087, 46432, 46926, 47191, 46906, 46458, 46412, 46419, 46318, 45020, 43703, 43081, 43088, 43162, 43631, 44247, 44284, 43755, 43594, 43403, 43762, 44547, 44715, 45249, 46666, 48667, 49994, 51101, 52090, 53797, 54507, 55285, 57734, 62506, 625, 2257, 4009, 4409, 4567, 5224, 6381, 7808, 10812, 12343, 10861, 8870, 8538, 8803, 7754, 7902, 10310, 8735, 4956, 3968, 3670, 4156, 3704, 880, 880, 64939, 63715, 713, 4354, 4354, 4466, 3845, 3174, 3790, 4213, 2362, 63272, 61164, 60489, 61129, 63402, 1118, 5459, 7349, 5237, 46, 61488, 60069, 59303, 58033, 56562, 56716, 57928, 61264, 688, 5598, 6465, 5433, 4247, 5326, 10556, 13973, 13465, 13349, 13981, 13007, 11577, 10475, 10549, 10640, 8908, 5569, 901, 65283, 63885, 60802, 60802, 57716, 54796, 52100, 50800, 50060, 49866, 50598, 51732, 52486, 54824, 57671, 58645, 59430, 57550, 52244, 49641, 47918, 46272, 46014, 46535, 48072, 50692, 53376, 57000, 62220, 2012, 5868, 7978, 9668, 12740, 12907, 9715, 9480, 12445, 16674, 20559, 25964, 29147, 32060, 34031, 35213, 35561, 35691, 35897, 36660, 36856, 37240, 38015, 22528, 38912, 8234, 3766, 2597, 2083, 2187, 2118, 2152, 2248, 2196, 2161, 2089, 2089, 2019, 2020, 1959, 1919, 1891, 1841, 1845, 1792, 1767, 1761, 1732, 1748, 1710, 1689, 1695, 1679, 1704, 1681, 1671, 1702, 1673, 1697, 1681, 1672, 1721, 1675, 1704, 1690, 1668, 1708, 1667, 1706, 1683, 1664, 1699, 1665, 1702, 1680, 1665, 1692, 1671, 1702, 1703, 1731, 1793, 1850, 2025, 2376, 2832, 2832, 3413, 4530, 38858, 2621, 3152, 5695, 13778, 54058, 11918, 3550, 12139, 12292, 7195, 7355, 8204, 9135, 4609, 4311, 4380, 4253, 3852, 3940, 4649, 5225, 5280, 5152, 4523, 3740, 3325, 3112, 3014, 2747, 2513, 2397, 2356, 2425, 2463, 2509, 2643, 2820, 3019, 3090, 3015, 2761, 2375, 2156, 1963, 1828, 1812, 1804, 1800, 1749, 1769, 1801, 1816, 1846, 1832, 1816, 1818, 1818, 1783, 1777, 1781, 1785, 1812, 1802, 1812, 1800, 1793, 1825, 1839, 1867, 1860, 1843, 1861, 1824, 1820, 1812, 1817, 1859, 1878, 1921, 1943, 1956, 1986, 1975, 1974, 1934, 1889, 1869, 1839, 1849, 1838, 1830, 1844, 1836, 1843, 1840, 1837, 1849, 1839, 1859, 1850, 1820, 1832, 1813, 1799, 1770, 1770, 1741, 1751, 1736, 1752, 1757, 1763, 1781, 1744, 1769, 1769, 1844, 1919, 1868, 1827, 1793, 1784, 1835, 1891, 1957, 1935, 1959, 2073, 2158, 2223, 2235, 2252, 2343, 2592, 2902, 2831, 2543, 2576, 2622, 2061, 1833, 1806, 1837, 1835, 1818, 1818, 1784, 1767, 1744, 1729, 1752, 1731, 1761, 1839, 1874, 1861, 1826, 1852, 1854, 1852, 1874, 1846, 1859, 1835, 1813, 1813, 1807, 1776, 1791, 1774, 1783, 1840, 1806, 1818, 1803, 1791, 1808, 1791, 1800, 1787, 1778, 1800, 1787, 1800, 1790, 1778, 1790, 1780, 1800, 1808, 1806, 1831, 1822, 1829, 1830, 1823, 1846, 1836, 1845, 1850, 1844, 1859, 1847, 1863, 1862, 1856, 1875, 1862, 1871, 1866, 1848, 1869, 1856, 1848, 1820, 1792, 1800, 1774, 1757, 1751, 1735, 1745, 1720, 1719, 1744, 1773, 1826, 1864, 1928, 2019, 2019, 2021, 2067, 2701, 3620, 3713, 3579, 3531, 3622, 3692, 3571, 3252, 3272, 3363, 3509, 3856, 4016, 4129, 4475, 4858, 5341, 5886, 6526, 6924, 6982, 6822, 6665, 7247, 8207, 8421, 7024, 4366, 2959, 2531, 2276, 2092, 1992, 1998, 1991, 1959, 1960, 1905, 1868, 1852, 1864, 1895, 1864, 1903, 1920, 1920, 1912, 1909, 1870, 1840, 1834, 1837, 1855, 1828, 1833, 1809, 1799, 1830, 1830, 1858, 1864, 1871, 1901, 1887, 1904, 1904, 1884, 1887, 1847, 1843, 1813, 1787, 1802, 1781, 1777, 1767, 1750, 1761, 1737, 1711, 1697, 1680, 1701, 1696, 1694, 1704, 1699, 1708, 1689, 1685, 1697, 1699, 1710, 1695, 1693, 1712, 1705, 1721, 1711, 1706, 1723, 1701, 1708, 1708, 1697, 1689, 1697, 1686, 1702, 1682, 1670, 1684, 1669, 1683, 1677, 1669, 1687, 1680, 1705, 1708, 1709, 1724, 1710, 1728, 1714, 1698, 1702, 1684, 1698, 1678, 1669, 1676, 1666, 1681, 1672, 1667, 1680, 1665, 1676, 1666, 1660, 1675, 1662, 1673, 1671, 1662, 1678, 1669, 1681, 1681, 1673, 1693, 1689, 1689, 1712, 1729, 1739, 1770, 1767, 1791, 1797, 1795, 1815, 1794, 1817, 1832, 1831, 1847, 1805, 1809, 1803, 1789, 1842, 1908, 1998, 2047, 2059, 2085, 2055, 2173, 3323, 5086, 7142, 8855, 9819, 9593, 7037, 4570, 3772, 3299, 2864, 2608, 2588, 2802, 3073, 3347, 3475, 3546, 3371, 3220, 3023, 2914, 2969, 3012, 3097, 3676, 4741, 5983, 7024, 8641, 15874, 34767, 56791, 56791, 60835, 32768, 10243, 4145, 2320, 2048, 1992, 1985, 1976, 2002, 2083, 2339, 2358, 2308, 2228, 2091, 1884, 1791, 1760, 1768, 1747, 1729, 1739, 1722, 1731, 1717, 1708, 1727, 1759, 2085, 2309, 2344, 2443, 2526, 2436, 2318, 2153, 2188, 2264, 2434, 2546, 2470, 2393, 2351, 2329, 2331, 2395, 2395, 2542, 2777, 3227, 3590, 3945, 4374, 5124, 5753, 6887, 8522, 9875, 9199, 7930, 5974, 3659, 2691, 2185, 1971, 1857, 1756, 1727, 1693, 1681, 1691, 1688, 1710, 1694, 1692, 1713, 1717, 1740, 1730, 1718, 1743, 1735, 1769, 1773, 1775, 1798, 1769, 1781, 1776, 1768, 1812, 1839, 1877, 1863, 1843, 1849, 1845, 1855, 1839, 1814, 1821, 1802, 1793, 1753, 1735, 1735, 1752, 1741, 1756, 1739, 1727, 1737, 1720, 1751, 1740, 1726, 1734, 1698, 1714, 1688, 1668, 1698, 1675, 1752, 1704, 1683, 1723, 1695, 1723, 1710, 1684, 1713, 1687, 1722, 1714, 1706, 1756, 1755, 1842, 1882, 1893, 1948, 1919, 1984, 2013, 2029, 2111, 2103, 2159, 2180, 2184, 2262, 2287, 2360, 2374, 2303, 2303, 2331, 2394, 2355, 2412, 2409, 2428, 2410, 2494, 2763, 2977, 3417, 3286, 3335, 3248, 3033, 2889, 2809, 2749, 2749, 2708, 2705, 2692, 2695, 2790, 2800, 2820, 2766, 2724, 2730, 2660, 2638, 2576, 2522, 2522, 2463, 2462, 2406, 2370, 2401, 2406, 2473, 2479, 2483, 2534, 2572, 2657, 2656, 2652, 2680, 2675, 2699, 2690, 2703, 2732, 2697, 2704, 2680, 2680, 2630, 2587, 2476, 2354, 2156, 1984, 1892, 1781, 1754, 1706, 1669, 1691, 1651, 1679, 1660, 1635, 1674, 1638, 1688, 1661, 1637, 1696, 1665, 1699, 1668, 1648, 1665, 1656, 1675, 1673, 1659, 1679, 1656, 1663, 1659, 1644, 1667, 1645, 1640, 1647, 1639, 1658, 1640, 1636, 1639, 1635, 1644, 1636, 1635, 1635, 1642, 1638, 1648, 1645, 1645, 1666, 1660, 1688, 1717, 1749, 1818, 1873, 2039, 2402, 3304, 4102, 4325, 4632, 4965, 5855, 5943, 6138, 8352, 12313, 15594, 20961, 24629, 19264, 15524, 15664, 16783, 17553, 20444, 26477, 23293, 20298, 20181, 19585, 19489, 19028, 19963, 21312, 23128, 23181, 22721, 22508, 21486, 20618, 20491, 18865, 20071, 21084, 22428, 22431, 22709, 25183, 26856, 28252, 28904, 28904, 28582, 29358, 35628, 35500, 32922, 31091, 29929, 26483, 20988, 20669, 21839, 21013, 26307, 30826, 22250, 14183, 8958, 5527, 3303, 2281, 2052, 2074, 2168, 2327, 2510, 2724, 3030, 3315, 3548, 3812, 3955, 3913, 3886, 3957, 4159, 4508, 5047, 6101, 8101, 12632, 22475, 27578, 38860, 10189, 33827, 41670, 58835, 58835, 59143, 59143, 51587, 52062, 59339, 36272, 30760, 27330, 20270, 14938, 10197, 7908, 7908, 7623, 8030, 9226, 9673, 9333, 8209, 7715, 7563, 7759, 7746, 7309, 7214, 6780, 6335, 5807, 5105, 4212, 3294, 1635, 64607, 64051, 63859, 62810, 61859, 61266, 60974, 61098, 61162, 61397, 62187, 63007, 65333, 3803, 7087, 8067, 6981, 5641, 4970, 5270, 4600, 2989, 1714, 1196, 484, 127, 110, 110, 65493, 65433, 65460, 673, 65439, 64275, 63254, 63040, 63311, 62973, 62621, 61919, 61074, 60168, 58903, 58411, 57829, 57369, 57088, 56638, 56221, 56110, 56285, 56650, 56842, 57052, 57053, 56984, 56884, 56892, 57036, 57258, 57306, 57474, 57658, 57923, 58138, 58409, 58955, 59451, 59680, 59579, 59365, 59169, 59117, 59407, 60012, 60401, 60731, 60974, 61249, 61365, 61485, 62021, 62717, 62980, 62756, 62424, 62237, 62234, 62234, 61951, 61759, 61761, 61950, 62166, 62248, 62307, 62295, 62378, 62265, 61936, 61225, 61149, 61131, 61114, 61183, 61253, 61329, 61134, 60856, 60299, 59867, 59754, 59655, 59475, 59381, 59353, 59490, 59438, 59397, 59292, 59365, 59771, 60850, 61834, 63029, 64736, 65198, 421, 850, 1239, 1543, 1837, 2221, 2626, 2727, 2896, 2756, 2191, 1883, 1198, 1198, 1387, 1762, 2071, 2047, 1813, 2025, 2607, 3297, 3569, 3920, 3725, 3403, 3100, 2967, 2913, 2951, 2962, 2828, 3135, 2944, 2619, 1683, 1108, 956, 1305, 2675, 3654, 3394, 3117, 4584, 5797, 5486, 5336, 5193, 5575, 6060, 5905, 6238, 7113, 6601, 3760, 1570, 64746, 63703, 62682, 62702, 62583, 62439, 62282, 62322, 62270, 62191, 62350, 62392, 62280, 61656, 60907, 60035, 59471, 59188, 59019, 59104, 59786, 61069, 62067, 62605, 63058, 63313, 63594, 64519, 64984, 65353, 227, 456, 649, 847, 1103, 1597, 2055, 3038, 3038, 3408, 3450, 3405, 3291, 2465, 2195, 1905, 706, 65180, 65120, 65339, 219, 775, 1031, 1166, 946, 999, 1133, 607, 440, 475, 518, 625, 739, 723, 595, 409, 289, 234, 171, 65165, 64688, 64394, 63912, 63357, 62861, 62604, 62563, 62281, 61788, 61276, 61150, 61171, 61124, 61085, 61165, 61165, 61260, 61162, 60712, 60548, 60538, 60511, 60449, 60425, 60412, 60278, 60241, 60150, 60150, 60011, 60061, 60200, 60244, 60266, 60271, 60215, 60149, 60195, 60317, 60477, 60167, 59850, 59461, 58679, 58398, 58537, 58627, 58621, 58557, 58734, 59193, 59905, 60509, 61541, 62444, 63158, 63666, 64166, 64642, 64101, 62752, 62278, 62123, 62167, 61970, 61947, 61978, 61851, 61873, 61928, 61639, 61137, 60267, 59652, 59465, 59361, 59361, 58276, 57418, 56752, 56177, 55772, 56430, 60531, 3699, 10972, 13859, 14114, 11571, 7817, 6808, 7121, 6974, 6514, 6268, 6470, 8968, 13919, 16000, 17359, 16574, 12561, 8714, 7609, 7293, 6959, 7327, 8268, 9876, 10674, 13473, 16920, 18244, 18566, 18560, 18961, 19375, 18946, 18760, 18417, 18064, 17985, 18055, 18062, 18081, 18081, 18357, 18456, 18396, 18505, 18334, 18116, 17978, 17945, 17763, 17763, 17673, 17739, 17753, 17821, 17914, 17993, 17977, 17823, 17675, 17642, 17589, 17583, 17678, 17766, 17817, 17967, 18122, 18357, 18563, 18708, 18806, 18965, 19046, 19134, 19165, 19213, 19170, 19159, 19172, 19106, 19141, 19188, 19287, 19407, 19493, 19584, 19714, 19999, 20200, 20560, 21171, 21931, 22712, 23715, 24756, 25445, 25445, 25872, 26495, 26495, 26373, 26915, 27534, 28240, 28766, 28649, 29228, 29860, 30364, 30527, 30080, 29532, 28845, 28639, 28263, 28228, 28137, 28012, 27663, 27159, 26686, 26187, 25975, 25862, 25922, 25933, 26077, 26188, 25689, 24694, 24131, 23956, 24079, 24547, 24844, 24983, 24798, 24287, 24353, 24541, 24409, 24985, 25335, 21524, 16023, 11971, 10091, 9061, 9150, 9850, 10403, 10790, 10427, 10269, 10432, 11007, 11137, 12278, 12278, 14925, 16979, 20091, 24832, 25350, 23922, 21124, 18433, 16833, 15552, 14784, 14344, 14954, 15727, 15739, 15486, 15537, 15313, 14440, 14280, 13930, 12058, 9987, 8404, 6826, 5349, 2851, 64700, 61198, 58800, 56608, 56982, 57627, 58230, 59159, 60014, 60956, 61075, 59926, 59622, 60217, 60948, 63184, 4069, 7471, 10034, 11788, 12540, 12540, 13081, 13009, 12526, 12018, 11695, 11978, 11670, 11734, 11840, 11693, 11939, 12791, 14446, 15049, 12534, 5703, 4174, 3371, 3999, 7751, 11286, 12745, 14572, 12778, 11834, 12238, 13016, 13579, 15608, 18295, 30463, 37296, 37234, 33018, 27355, 25347, 25151, 25945, 26313, 25850, 25525, 24029, 22758, 21693, 21065, 20036, 20112, 16218, 11565, 8531, 8098, 9062, 10480, 11798, 14159, 18568, 22758, 24934, 26092, 26092, 26388, 26342, 26331, 25371, 25402, 25879, 26189, 26593, 27251, 27418, 27846, 27859, 27185, 26329, 25091, 23984, 23469, 21990, 21371, 21621, 22178, 22816, 23632, 23994, 24021, 24029, 23950, 23759, 23446, 22985, 21831, 20389, 19233, 19405, 19798, 20328, 20409, 20883, 21122, 18957, 15505, 13441, 13255, 13394, 12455, 10633, 9539, 9539, 9426, 9076, 8561, 8066, 7428, 6892, 6427, 6319, 6153, 5924, 5766, 5544, 5344, 4894, 4712, 4772, 4095, 4762, 6648, 8806, 12134, 14833, 16096, 16310, 15755, 14875, 14647, 14847, 15567, 16331, 17234, 18289, 18600, 19288, 20239, 20851, 21008, 20254, 19136, 18401, 17295, 16447, 16093, 16718, 18270, 20161, 21146, 23169, 23376, 23825, 22972, 21645, 20897, 21383, 22304, 23039, 24059, 24344, 24327, 23809, 23809, 22329, 20466, 19008, 18570, 17944, 17678, 17689, 17606, 17842, 17950, 17519, 17053, 17479, 19164, 22364, 26502, 31612, 35571, 36838, 36685, 37484, 39272, 36368, 29743, 27703, 28282, 29443, 30231, 30794, 31332, 31999, 32942, 33743, 34324, 34590, 34647, 34306, 33501, 31871, 30397, 30420, 30688, 29990, 28532, 27860, 28081, 29580, 29580, 32029, 33997, 34534, 34456, 34579, 34853, 35222, 35265, 35177, 34960, 34648, 34383, 34108, 33930, 33690, 33471, 33249, 33238, 33339, 33640, 33892, 34070, 34050, 34024, 34059, 33955, 33584, 32939, 31944, 30992, 30067, 29382, 28696, 28098, 27498, 27262, 27137, 27396, 27875, 28040, 27997, 27824, 27682, 27503, 27249, 26894, 26608, 26438, 26275, 26228, 26083, 24886, 23478, 23500, 24009, 24346, 24197, 23664, 23215, 23215, 23569, 23760, 23503, 23922, 24460, 24723, 25462, 26238, 27064, 27831, 29903, 33665, 37556, 40347, 41195, 39834, 37342, 35923, 34525, 34587, 35906, 39742, 39704, 38566, 38552, 38156, 36296, 34490, 30286, 28270, 29372, 29198, 29114, 26190, 25010, 25714, 21630, 15861, 10843, 7296, 6554, 7349, 8077, 9000, 10231, 11191, 11018, 10520, 11393, 12655, 14826, 17362, 19032, 19032, 19650, 20615, 20832, 20778, 20782, 20739, 20701, 21095, 21627, 21646, 24350, 24186, 23524, 22680, 22680, 21158, 18343, 16656, 15448, 13657, 10004, 6073, 4589, 4382, 4826, 5924, 6447, 9756, 18380, 34229, 40415, 37259, 35839, 37869, 37107, 35825, 35514, 36214, 39225, 41105, 40245, 39503, 51148, 61426, 52194, 40733, 25895, 14985, 10582, 9534, 9433, 9786, 10226, 10703, 10927, 11220, 11675, 12328, 12920, 13498, 14525, 16227, 16368, 16299, 15483, 15298, 17828, 17828, 18273, 17473, 17265, 16557, 16845, 16125, 14962, 14406, 14148, 14462, 14453, 14926, 15693, 16332, 17276, 18412, 19242, 19374, 19340, 20073, 20455, 20734, 23996, 28251, 29327, 31599, 34278, 35986, 36592, 37252, 41250, 46459, 40060, 31591, 25360, 21457, 18917, 17724, 15730, 13780, 13247, 12922, 12736, 12204, 11560, 10856, 11219, 11290, 10736, 9888, 10420, 9836, 9683, 11195, 13739, 15637, 17355, 18707, 19079, 20147, 21505, 21590, 21972, 21972, 22337, 23296, 24642, 25912, 21962, 16741, 15053, 14412, 12549, 10346, 8180, 6334, 5131, 4163, 3859, 4741, 6086, 6654, 7016, 6997, 7077, 7260, 6591, 6133, 6056, 5939, 5566, 5114, 4865, 4768, 4588, 4500, 4093, 3857, 3924, 3943, 3569, 3373, 3566, 3541, 3483, 3396, 3162, 3319, 3463, 3413, 3406, 3238, 3238, 3227, 3174, 3093, 2427, 2021, 2126, 2387, 2534, 2514, 2284, 2080, 1910, 1955, 1951, 1871, 1739, 1419, 1280, 1321, 1475, 1546, 1685, 1950, 2127, 2235, 2310, 2304, 2154, 2110, 2266, 2220, 2173, 2102, 1925, 1871, 1918, 1873, 1606, 1145, 736, 537, 135, 65146, 64202, 62908, 61854, 61149, 60444, 59920, 59681, 59644, 59618, 59633, 59560, 59331, 59969, 59437, 58476, 57424, 56654, 55773, 55307, 55307, 54905, 54384, 53865, 53569, 53385, 53709, 53711, 53729, 54002, 53991, 53902, 53552, 53396, 53455, 53596, 53980, 54126, 53975, 53626, 53616, 54426, 55209, 56176, 57571, 58209, 58783, 58920, 59928, 62188, 64615, 54, 100, 781, 1669, 1763, 927, 65264, 63931, 62640, 62246, 61974, 61814, 61691, 61384, 61011, 60527, 60552, 60587, 59935, 59098, 59098, 58582, 58582, 58177, 57584, 57298, 57118, 56827, 56617, 56826, 56916, 56880, 56956, 57281, 57495, 57463, 57352, 57328, 57300, 57183, 57003, 56769, 56692, 56885, 57034, 57234, 57500, 57669, 58091, 58925, 59152, 59129, 59322, 59436, 59575, 59783, 59679, 59574, 59699, 59953, 60619, 61560, 62045, 62855, 63400, 63510, 63609, 63823, 64095, 64292, 64633, 13, 791, 1722, 2241, 2690, 3842, 4920, 5780, 5914, 5492, 4966, 4651, 4500, 4024, 3312, 3256, 3078]}server=223.130.142.8:5000//socket.io/ client=58.77.68.80:49996 socket shutdown error: [Errno 9] Bad file descriptor
Processing 3000 IR data points
Error processing PPG data: type list doesn't define __round__ method
